# Pulseq sequence file
# Created by MATLAB mr toolbox

# Created for Pulseq-CEST
# https://pulseq-cest.github.io/
# Created by: Kai Herz
# Created at: 03-Feb-2023 12:33:33

[VERSION]
major 1
minor 3
revision 1

[DEFINITIONS]
B0 2.895 
B1cwpe 3.7 
M0_offset -300
FREQ 123.259473 
Trec 3 
Trec_M0 12 
Tsat 0.005 
n_pulses 1 
num_meas 32 
offsets_ppm -300 -2 -1.86666667 -1.73333333 -1.6 -1.46666667 -1.33333333 -1.2 -1.06666667 -0.933333333 -0.8 -0.666666667 -0.533333333 -0.4 -0.266666667 -0.133333333 0 0.133333333 0.266666667 0.4 0.533333333 0.666666667 0.8 0.933333333 1.06666667 1.2 1.33333333 1.46666667 1.6 1.73333333 1.86666667 2 
seq_id_string WASABI_3T_001_3p7uT_1block_5ms 
tp 0.005 

# Format of blocks:
#  #  D RF  GX  GY  GZ ADC EXT
[BLOCKS]
  1  1  0   0   0   0  0  0
  2  0  1   0   0   0  0  0
  3  0  0   1   1   1  0  0
  4  0  0   0   0   0  1  0
  5  2  0   0   0   0  0  0
  6  0  2   0   0   0  0  0
  7  0  0   1   1   1  0  0
  8  0  0   0   0   0  1  0
  9  2  0   0   0   0  0  0
 10  0  3   0   0   0  0  0
 11  0  0   1   1   1  0  0
 12  0  0   0   0   0  1  0
 13  2  0   0   0   0  0  0
 14  0  4   0   0   0  0  0
 15  0  0   1   1   1  0  0
 16  0  0   0   0   0  1  0
 17  2  0   0   0   0  0  0
 18  0  5   0   0   0  0  0
 19  0  0   1   1   1  0  0
 20  0  0   0   0   0  1  0
 21  2  0   0   0   0  0  0
 22  0  6   0   0   0  0  0
 23  0  0   1   1   1  0  0
 24  0  0   0   0   0  1  0
 25  2  0   0   0   0  0  0
 26  0  7   0   0   0  0  0
 27  0  0   1   1   1  0  0
 28  0  0   0   0   0  1  0
 29  2  0   0   0   0  0  0
 30  0  8   0   0   0  0  0
 31  0  0   1   1   1  0  0
 32  0  0   0   0   0  1  0
 33  2  0   0   0   0  0  0
 34  0  9   0   0   0  0  0
 35  0  0   1   1   1  0  0
 36  0  0   0   0   0  1  0
 37  2  0   0   0   0  0  0
 38  0 10   0   0   0  0  0
 39  0  0   1   1   1  0  0
 40  0  0   0   0   0  1  0
 41  2  0   0   0   0  0  0
 42  0 11   0   0   0  0  0
 43  0  0   1   1   1  0  0
 44  0  0   0   0   0  1  0
 45  2  0   0   0   0  0  0
 46  0 12   0   0   0  0  0
 47  0  0   1   1   1  0  0
 48  0  0   0   0   0  1  0
 49  2  0   0   0   0  0  0
 50  0 13   0   0   0  0  0
 51  0  0   1   1   1  0  0
 52  0  0   0   0   0  1  0
 53  2  0   0   0   0  0  0
 54  0 14   0   0   0  0  0
 55  0  0   1   1   1  0  0
 56  0  0   0   0   0  1  0
 57  2  0   0   0   0  0  0
 58  0 15   0   0   0  0  0
 59  0  0   1   1   1  0  0
 60  0  0   0   0   0  1  0
 61  2  0   0   0   0  0  0
 62  0 16   0   0   0  0  0
 63  0  0   1   1   1  0  0
 64  0  0   0   0   0  1  0
 65  2  0   0   0   0  0  0
 66  0 17   0   0   0  0  0
 67  0  0   1   1   1  0  0
 68  0  0   0   0   0  1  0
 69  2  0   0   0   0  0  0
 70  0 18   0   0   0  0  0
 71  0  0   1   1   1  0  0
 72  0  0   0   0   0  1  0
 73  2  0   0   0   0  0  0
 74  0 19   0   0   0  0  0
 75  0  0   1   1   1  0  0
 76  0  0   0   0   0  1  0
 77  2  0   0   0   0  0  0
 78  0 20   0   0   0  0  0
 79  0  0   1   1   1  0  0
 80  0  0   0   0   0  1  0
 81  2  0   0   0   0  0  0
 82  0 21   0   0   0  0  0
 83  0  0   1   1   1  0  0
 84  0  0   0   0   0  1  0
 85  2  0   0   0   0  0  0
 86  0 22   0   0   0  0  0
 87  0  0   1   1   1  0  0
 88  0  0   0   0   0  1  0
 89  2  0   0   0   0  0  0
 90  0 23   0   0   0  0  0
 91  0  0   1   1   1  0  0
 92  0  0   0   0   0  1  0
 93  2  0   0   0   0  0  0
 94  0 24   0   0   0  0  0
 95  0  0   1   1   1  0  0
 96  0  0   0   0   0  1  0
 97  2  0   0   0   0  0  0
 98  0 25   0   0   0  0  0
 99  0  0   1   1   1  0  0
100  0  0   0   0   0  1  0
101  2  0   0   0   0  0  0
102  0 26   0   0   0  0  0
103  0  0   1   1   1  0  0
104  0  0   0   0   0  1  0
105  2  0   0   0   0  0  0
106  0 27   0   0   0  0  0
107  0  0   1   1   1  0  0
108  0  0   0   0   0  1  0
109  2  0   0   0   0  0  0
110  0 28   0   0   0  0  0
111  0  0   1   1   1  0  0
112  0  0   0   0   0  1  0
113  2  0   0   0   0  0  0
114  0 29   0   0   0  0  0
115  0  0   1   1   1  0  0
116  0  0   0   0   0  1  0
117  2  0   0   0   0  0  0
118  0 30   0   0   0  0  0
119  0  0   1   1   1  0  0
120  0  0   0   0   0  1  0
121  2  0   0   0   0  0  0
122  0 31   0   0   0  0  0
123  0  0   1   1   1  0  0
124  0  0   0   0   0  1  0
125  2  0   0   0   0  0  0
126  0 32   0   0   0  0  0
127  0  0   1   1   1  0  0
128  0  0   0   0   0  1  0

# Format of RF events:
# id amplitude mag_id phase_id delay freq phase
# ..        Hz   ....     ....    us   Hz   rad
[RF]
1      157.533 1 2 100 -36977.6 0
2      157.533 1 2 100 -246.517 0
3      157.533 1 2 100 -230.083 0
4      157.533 1 2 100 -213.648 0
5      157.533 1 2 100 -197.214 0
6      157.533 1 2 100 -180.779 0
7      157.533 1 2 100 -164.345 0
8      157.533 1 2 100 -147.91 0
9      157.533 1 2 100 -131.476 0
10      157.533 1 2 100 -115.041 0
11      157.533 1 2 100 -98.6069 0
12      157.533 1 2 100 -82.1725 0
13      157.533 1 2 100 -65.738 0
14      157.533 1 2 100 -49.3035 0
15      157.533 1 2 100 -32.869 0
16      157.533 1 2 100 -16.4345 0
17      157.533 1 2 100 0 0
18      157.533 1 2 100 16.4345 0
19      157.533 1 2 100 32.869 0
20      157.533 1 2 100 49.3035 0
21      157.533 1 2 100 65.738 0
22      157.533 1 2 100 82.1725 0
23      157.533 1 2 100 98.6069 0
24      157.533 1 2 100 115.041 0
25      157.533 1 2 100 131.476 0
26      157.533 1 2 100 147.91 0
27      157.533 1 2 100 164.345 0
28      157.533 1 2 100 180.779 0
29      157.533 1 2 100 197.214 0
30      157.533 1 2 100 213.648 0
31      157.533 1 2 100 230.083 0
32      157.533 1 2 100 246.517 0

# Format of trapezoid gradients:
# id amplitude rise flat fall delay
# ..      Hz/m   us   us   us    us
[TRAP]
 1  1.36244e+06 1000 4500 1000   0

# Format of ADC events:
# id num dwell delay freq phase
# ..  ..    ns    us   Hz   rad
[ADC]
1 1 1000000 0 0 0

# Format of delays:
# id delay (us)
[DELAYS]
1 12000000
2 3000000

# Sequence Shapes
[SHAPES]

shape_id 1
num_samples 5030
1
0
0
4997
-1
0
0
27

shape_id 2
num_samples 5030
0
0
5028

