# Pulseq sequence file
# Created by PyPulseq

[VERSION]
major 1
minor 4
revision 0

[DEFINITIONS]
AdcRasterTime 1e-07 
BlockDurationRaster 1e-05 
GradientRasterTime 1e-05 
RadiofrequencyRasterTime 1e-06 
TotalDuration 76.18064 
b1cwpe 3.75 
freq 123.2 
m0_offset -300 
num_meas 32 
offsets_ppm -300 -4 -3.73333333 -3.46666667 -3.2 -2.93333333 -2.66666667 -2.4 -2.13333333 -1.86666667 -1.6 -1.33333333 -1.06666667 -0.8 -0.533333333 -0.266666667 0 0.266666667 0.533333333 0.8 1.06666667 1.33333333 1.6 1.86666667 2.13333333 2.4 2.66666667 2.93333333 3.2 3.46666667 3.73333333 4 
tp 0.005 
trec 15 0.5 1 2 3 4 5 1.5 1.5 1.5 1.5 1.5 1.5 1.5 1.5 1.5 1.5 1.5 1.5 1.5 1.5 1.5 1.5 1.5 1.5 1.5 5 4 3 2 1 0.5 
trec_m0 15 
tsat 0.005 

# Format of blocks:
# NUM DUR RF  GX  GY  GZ  ADC  EXT
[BLOCKS]
  1 813   1   0   0   0  0  0
  2 550   0   1   2   3  0  0
  3 813   1   0   0   0  0  0
  4 550   0   2   3   1  0  0
  5 813   1   0   0   0  0  0
  6 550   0   3   1   2  0  0
  7 1500000   0   0   0   0  0  0
  8 513   2   0   0   0  0  0
  9 550   0   4   4   4  0  0
 10 100   0   0   0   0  1  0
 11 813   1   0   0   0  0  0
 12 550   0   1   2   3  0  0
 13 813   1   0   0   0  0  0
 14 550   0   2   3   1  0  0
 15 813   1   0   0   0  0  0
 16 550   0   3   1   2  0  0
 17 50000   0   0   0   0  0  0
 18 513   3   0   0   0  0  0
 19 550   0   4   4   4  0  0
 20 100   0   0   0   0  1  0
 21 813   1   0   0   0  0  0
 22 550   0   1   2   3  0  0
 23 813   1   0   0   0  0  0
 24 550   0   2   3   1  0  0
 25 813   1   0   0   0  0  0
 26 550   0   3   1   2  0  0
 27 100000   0   0   0   0  0  0
 28 513   4   0   0   0  0  0
 29 550   0   4   4   4  0  0
 30 100   0   0   0   0  1  0
 31 813   1   0   0   0  0  0
 32 550   0   1   2   3  0  0
 33 813   1   0   0   0  0  0
 34 550   0   2   3   1  0  0
 35 813   1   0   0   0  0  0
 36 550   0   3   1   2  0  0
 37 200000   0   0   0   0  0  0
 38 513   5   0   0   0  0  0
 39 550   0   4   4   4  0  0
 40 100   0   0   0   0  1  0
 41 813   1   0   0   0  0  0
 42 550   0   1   2   3  0  0
 43 813   1   0   0   0  0  0
 44 550   0   2   3   1  0  0
 45 813   1   0   0   0  0  0
 46 550   0   3   1   2  0  0
 47 300000   0   0   0   0  0  0
 48 513   6   0   0   0  0  0
 49 550   0   4   4   4  0  0
 50 100   0   0   0   0  1  0
 51 813   1   0   0   0  0  0
 52 550   0   1   2   3  0  0
 53 813   1   0   0   0  0  0
 54 550   0   2   3   1  0  0
 55 813   1   0   0   0  0  0
 56 550   0   3   1   2  0  0
 57 400000   0   0   0   0  0  0
 58 513   7   0   0   0  0  0
 59 550   0   4   4   4  0  0
 60 100   0   0   0   0  1  0
 61 813   1   0   0   0  0  0
 62 550   0   1   2   3  0  0
 63 813   1   0   0   0  0  0
 64 550   0   2   3   1  0  0
 65 813   1   0   0   0  0  0
 66 550   0   3   1   2  0  0
 67 500000   0   0   0   0  0  0
 68 513   8   0   0   0  0  0
 69 550   0   4   4   4  0  0
 70 100   0   0   0   0  1  0
 71 813   1   0   0   0  0  0
 72 550   0   1   2   3  0  0
 73 813   1   0   0   0  0  0
 74 550   0   2   3   1  0  0
 75 813   1   0   0   0  0  0
 76 550   0   3   1   2  0  0
 77 150000   0   0   0   0  0  0
 78 513   9   0   0   0  0  0
 79 550   0   4   4   4  0  0
 80 100   0   0   0   0  1  0
 81 813   1   0   0   0  0  0
 82 550   0   1   2   3  0  0
 83 813   1   0   0   0  0  0
 84 550   0   2   3   1  0  0
 85 813   1   0   0   0  0  0
 86 550   0   3   1   2  0  0
 87 150000   0   0   0   0  0  0
 88 513  10   0   0   0  0  0
 89 550   0   4   4   4  0  0
 90 100   0   0   0   0  1  0
 91 813   1   0   0   0  0  0
 92 550   0   1   2   3  0  0
 93 813   1   0   0   0  0  0
 94 550   0   2   3   1  0  0
 95 813   1   0   0   0  0  0
 96 550   0   3   1   2  0  0
 97 150000   0   0   0   0  0  0
 98 513  11   0   0   0  0  0
 99 550   0   4   4   4  0  0
100 100   0   0   0   0  1  0
101 813   1   0   0   0  0  0
102 550   0   1   2   3  0  0
103 813   1   0   0   0  0  0
104 550   0   2   3   1  0  0
105 813   1   0   0   0  0  0
106 550   0   3   1   2  0  0
107 150000   0   0   0   0  0  0
108 513  12   0   0   0  0  0
109 550   0   4   4   4  0  0
110 100   0   0   0   0  1  0
111 813   1   0   0   0  0  0
112 550   0   1   2   3  0  0
113 813   1   0   0   0  0  0
114 550   0   2   3   1  0  0
115 813   1   0   0   0  0  0
116 550   0   3   1   2  0  0
117 150000   0   0   0   0  0  0
118 513  13   0   0   0  0  0
119 550   0   4   4   4  0  0
120 100   0   0   0   0  1  0
121 813   1   0   0   0  0  0
122 550   0   1   2   3  0  0
123 813   1   0   0   0  0  0
124 550   0   2   3   1  0  0
125 813   1   0   0   0  0  0
126 550   0   3   1   2  0  0
127 150000   0   0   0   0  0  0
128 513  14   0   0   0  0  0
129 550   0   4   4   4  0  0
130 100   0   0   0   0  1  0
131 813   1   0   0   0  0  0
132 550   0   1   2   3  0  0
133 813   1   0   0   0  0  0
134 550   0   2   3   1  0  0
135 813   1   0   0   0  0  0
136 550   0   3   1   2  0  0
137 150000   0   0   0   0  0  0
138 513  15   0   0   0  0  0
139 550   0   4   4   4  0  0
140 100   0   0   0   0  1  0
141 813   1   0   0   0  0  0
142 550   0   1   2   3  0  0
143 813   1   0   0   0  0  0
144 550   0   2   3   1  0  0
145 813   1   0   0   0  0  0
146 550   0   3   1   2  0  0
147 150000   0   0   0   0  0  0
148 513  16   0   0   0  0  0
149 550   0   4   4   4  0  0
150 100   0   0   0   0  1  0
151 813   1   0   0   0  0  0
152 550   0   1   2   3  0  0
153 813   1   0   0   0  0  0
154 550   0   2   3   1  0  0
155 813   1   0   0   0  0  0
156 550   0   3   1   2  0  0
157 150000   0   0   0   0  0  0
158 513  17   0   0   0  0  0
159 550   0   4   4   4  0  0
160 100   0   0   0   0  1  0
161 813   1   0   0   0  0  0
162 550   0   1   2   3  0  0
163 813   1   0   0   0  0  0
164 550   0   2   3   1  0  0
165 813   1   0   0   0  0  0
166 550   0   3   1   2  0  0
167 150000   0   0   0   0  0  0
168 513  18   0   0   0  0  0
169 550   0   4   4   4  0  0
170 100   0   0   0   0  1  0
171 813   1   0   0   0  0  0
172 550   0   1   2   3  0  0
173 813   1   0   0   0  0  0
174 550   0   2   3   1  0  0
175 813   1   0   0   0  0  0
176 550   0   3   1   2  0  0
177 150000   0   0   0   0  0  0
178 513  19   0   0   0  0  0
179 550   0   4   4   4  0  0
180 100   0   0   0   0  1  0
181 813   1   0   0   0  0  0
182 550   0   1   2   3  0  0
183 813   1   0   0   0  0  0
184 550   0   2   3   1  0  0
185 813   1   0   0   0  0  0
186 550   0   3   1   2  0  0
187 150000   0   0   0   0  0  0
188 513  20   0   0   0  0  0
189 550   0   4   4   4  0  0
190 100   0   0   0   0  1  0
191 813   1   0   0   0  0  0
192 550   0   1   2   3  0  0
193 813   1   0   0   0  0  0
194 550   0   2   3   1  0  0
195 813   1   0   0   0  0  0
196 550   0   3   1   2  0  0
197 150000   0   0   0   0  0  0
198 513  21   0   0   0  0  0
199 550   0   4   4   4  0  0
200 100   0   0   0   0  1  0
201 813   1   0   0   0  0  0
202 550   0   1   2   3  0  0
203 813   1   0   0   0  0  0
204 550   0   2   3   1  0  0
205 813   1   0   0   0  0  0
206 550   0   3   1   2  0  0
207 150000   0   0   0   0  0  0
208 513  22   0   0   0  0  0
209 550   0   4   4   4  0  0
210 100   0   0   0   0  1  0
211 813   1   0   0   0  0  0
212 550   0   1   2   3  0  0
213 813   1   0   0   0  0  0
214 550   0   2   3   1  0  0
215 813   1   0   0   0  0  0
216 550   0   3   1   2  0  0
217 150000   0   0   0   0  0  0
218 513  23   0   0   0  0  0
219 550   0   4   4   4  0  0
220 100   0   0   0   0  1  0
221 813   1   0   0   0  0  0
222 550   0   1   2   3  0  0
223 813   1   0   0   0  0  0
224 550   0   2   3   1  0  0
225 813   1   0   0   0  0  0
226 550   0   3   1   2  0  0
227 150000   0   0   0   0  0  0
228 513  24   0   0   0  0  0
229 550   0   4   4   4  0  0
230 100   0   0   0   0  1  0
231 813   1   0   0   0  0  0
232 550   0   1   2   3  0  0
233 813   1   0   0   0  0  0
234 550   0   2   3   1  0  0
235 813   1   0   0   0  0  0
236 550   0   3   1   2  0  0
237 150000   0   0   0   0  0  0
238 513  25   0   0   0  0  0
239 550   0   4   4   4  0  0
240 100   0   0   0   0  1  0
241 813   1   0   0   0  0  0
242 550   0   1   2   3  0  0
243 813   1   0   0   0  0  0
244 550   0   2   3   1  0  0
245 813   1   0   0   0  0  0
246 550   0   3   1   2  0  0
247 150000   0   0   0   0  0  0
248 513  26   0   0   0  0  0
249 550   0   4   4   4  0  0
250 100   0   0   0   0  1  0
251 813   1   0   0   0  0  0
252 550   0   1   2   3  0  0
253 813   1   0   0   0  0  0
254 550   0   2   3   1  0  0
255 813   1   0   0   0  0  0
256 550   0   3   1   2  0  0
257 150000   0   0   0   0  0  0
258 513  27   0   0   0  0  0
259 550   0   4   4   4  0  0
260 100   0   0   0   0  1  0
261 813   1   0   0   0  0  0
262 550   0   1   2   3  0  0
263 813   1   0   0   0  0  0
264 550   0   2   3   1  0  0
265 813   1   0   0   0  0  0
266 550   0   3   1   2  0  0
267 500000   0   0   0   0  0  0
268 513  28   0   0   0  0  0
269 550   0   4   4   4  0  0
270 100   0   0   0   0  1  0
271 813   1   0   0   0  0  0
272 550   0   1   2   3  0  0
273 813   1   0   0   0  0  0
274 550   0   2   3   1  0  0
275 813   1   0   0   0  0  0
276 550   0   3   1   2  0  0
277 400000   0   0   0   0  0  0
278 513  29   0   0   0  0  0
279 550   0   4   4   4  0  0
280 100   0   0   0   0  1  0
281 813   1   0   0   0  0  0
282 550   0   1   2   3  0  0
283 813   1   0   0   0  0  0
284 550   0   2   3   1  0  0
285 813   1   0   0   0  0  0
286 550   0   3   1   2  0  0
287 300000   0   0   0   0  0  0
288 513  30   0   0   0  0  0
289 550   0   4   4   4  0  0
290 100   0   0   0   0  1  0
291 813   1   0   0   0  0  0
292 550   0   1   2   3  0  0
293 813   1   0   0   0  0  0
294 550   0   2   3   1  0  0
295 813   1   0   0   0  0  0
296 550   0   3   1   2  0  0
297 200000   0   0   0   0  0  0
298 513  31   0   0   0  0  0
299 550   0   4   4   4  0  0
300 100   0   0   0   0  1  0
301 813   1   0   0   0  0  0
302 550   0   1   2   3  0  0
303 813   1   0   0   0  0  0
304 550   0   2   3   1  0  0
[RF]
1       851.52 1 2 3 100 0 0
2      159.661 4 5 6 100 -36960 0
3      159.661 4 5 6 100 -492.8 0
4      159.661 4 5 6 100 -459.947 0
5      159.661 4 5 6 100 -427.093 0
6      159.661 4 5 6 100 -394.24 0
7      159.661 4 5 6 100 -361.387 0
8      159.661 4 5 6 100 -328.533 0
9      159.661 4 5 6 100 -295.68 0
10      159.661 4 5 6 100 -262.827 0
11      159.661 4 5 6 100 -229.973 0
12      159.661 4 5 6 100 -197.12 0
13      159.661 4 5 6 100 -164.267 0
14      159.661 4 5 6 100 -131.413 0
15      159.661 4 5 6 100 -98.56 0
16      159.661 4 5 6 100 -65.707 0
17      159.661 4 5 6 100 -32.853 0
18      159.661 4 5 6 100 0 0
19      159.661 4 5 6 100 32.853 0
20      159.661 4 5 6 100 65.707 0
21      159.661 4 5 6 100 98.56 0
22      159.661 4 5 6 100 131.413 0
23      159.661 4 5 6 100 164.267 0
24      159.661 4 5 6 100 197.12 0
25      159.661 4 5 6 100 229.973 0
26      159.661 4 5 6 100 262.827 0
27      159.661 4 5 6 100 295.68 0
28      159.661 4 5 6 100 328.533 0
29      159.661 4 5 6 100 361.387 0
30      159.661 4 5 6 100 394.24 0
31      159.661 4 5 6 100 427.093 0
32      159.661 4 5 6 100 459.947 0
33      159.661 4 5 6 100 492.8 0

# Format of trapezoid gradients:
# id amplitude rise flat fall delay
# ..      Hz/m   us   us   us    us
[TRAP]
 1  1.70304e+06 1000 3500 1000   0
 2 -1.49016e+06 1000 3500 1000   0
 3  1.27728e+06 1000 3500 1000   0
 4   2.1288e+06 1000 3500 1000   0

# Format of ADC events:
# id num dwell delay freq phase
# ..  ..    ns    us   Hz   rad
[ADC]
1 1 1000000 0 0 0

# Sequence Shapes
[SHAPES]

shape_id 1
num_samples 8000
0.0131305218
0.0131387738
0.013147031
0.0131552934
0.013163561
0.0131718338
0.0131801118
0.013188395
0.0131966834
0.013204977
0.0132132758
0.0132215798
0.0132298891
0.0132382036
0.0132465232
0.0132548482
0.0132631783
0.0132715137
0.0132798543
0.0132882002
0.0132965513
0.0133049076
0.0133132693
0.0133216361
0.0133300082
0.0133383856
0.0133467683
0.0133551562
0.0133635493
0.0133719478
0.0133803515
0.0133887605
0.0133971748
0.0134055944
0.0134140193
0.0134224495
0.0134308849
0.0134393257
0.0134477717
0.0134562231
0.0134646798
0.0134731418
0.0134816091
0.0134900818
0.0134985597
0.013507043
0.0135155316
0.0135240256
0.0135325249
0.0135410295
0.0135495395
0.0135580548
0.0135665754
0.0135751015
0.0135836328
0.0135921696
0.0136007117
0.0136092592
0.013617812
0.0136263702
0.0136349338
0.0136435028
0.0136520772
0.0136606569
0.0136692421
0.0136778326
0.0136864285
0.0136950298
0.0137036366
0.0137122487
0.0137208663
0.0137294893
0.0137381176
0.0137467515
0.0137553907
0.0137640354
0.0137726855
0.013781341
0.013790002
0.0137986684
0.0138073402
0.0138160175
0.0138247003
0.0138333885
0.0138420822
0.0138507813
0.0138594859
0.013868196
0.0138769115
0.0138856325
0.013894359
0.013903091
0.0139118285
0.0139205715
0.0139293199
0.0139380739
0.0139468333
0.0139555983
0.0139643687
0.0139731447
0.0139819262
0.0139907132
0.0139995057
0.0140083038
0.0140171073
0.0140259164
0.0140347311
0.0140435513
0.014052377
0.0140612083
0.0140700451
0.0140788875
0.0140877354
0.0140965889
0.0141054479
0.0141143125
0.0141231827
0.0141320585
0.0141409398
0.0141498267
0.0141587192
0.0141676173
0.014176521
0.0141854303
0.0141943452
0.0142032656
0.0142121917
0.0142211234
0.0142300607
0.0142390036
0.0142479521
0.0142569063
0.0142658661
0.0142748315
0.0142838025
0.0142927792
0.0143017615
0.0143107495
0.0143197431
0.0143287424
0.0143377473
0.0143467579
0.0143557741
0.014364796
0.0143738236
0.0143828568
0.0143918957
0.0144009403
0.0144099906
0.0144190466
0.0144281082
0.0144371756
0.0144462486
0.0144553274
0.0144644118
0.014473502
0.0144825979
0.0144916995
0.0145008068
0.0145099198
0.0145190386
0.014528163
0.0145372933
0.0145464292
0.0145555709
0.0145647184
0.0145738715
0.0145830305
0.0145921952
0.0146013656
0.0146105418
0.0146197238
0.0146289116
0.0146381051
0.0146473044
0.0146565094
0.0146657203
0.014674937
0.0146841594
0.0146933876
0.0147026217
0.0147118615
0.0147211071
0.0147303586
0.0147396158
0.0147488789
0.0147581478
0.0147674225
0.0147767031
0.0147859895
0.0147952817
0.0148045797
0.0148138836
0.0148231934
0.0148325089
0.0148418304
0.0148511577
0.0148604908
0.0148698299
0.0148791748
0.0148885255
0.0148978822
0.0149072447
0.0149166131
0.0149259874
0.0149353675
0.0149447536
0.0149541456
0.0149635434
0.0149729472
0.0149823569
0.0149917725
0.015001194
0.0150106214
0.0150200548
0.015029494
0.0150389393
0.0150483904
0.0150578475
0.0150673105
0.0150767795
0.0150862544
0.0150957353
0.0151052221
0.0151147149
0.0151242136
0.0151337184
0.015143229
0.0151527457
0.0151622684
0.015171797
0.0151813316
0.0151908722
0.0152004188
0.0152099714
0.01521953
0.0152290946
0.0152386653
0.0152482419
0.0152578245
0.0152674132
0.0152770079
0.0152866086
0.0152962154
0.0153058282
0.015315447
0.0153250719
0.0153347028
0.0153443398
0.0153539828
0.0153636319
0.015373287
0.0153829482
0.0153926155
0.0154022889
0.0154119683
0.0154216538
0.0154313454
0.0154410431
0.0154507469
0.0154604568
0.0154701728
0.0154798948
0.015489623
0.0154993573
0.0155090978
0.0155188443
0.015528597
0.0155383558
0.0155481207
0.0155578918
0.015567669
0.0155774523
0.0155872418
0.0155970374
0.0156068392
0.0156166472
0.0156264613
0.0156362816
0.015646108
0.0156559406
0.0156657794
0.0156756244
0.0156854756
0.0156953329
0.0157051965
0.0157150662
0.0157249422
0.0157348243
0.0157447127
0.0157546073
0.0157645081
0.0157744151
0.0157843283
0.0157942478
0.0158041735
0.0158141054
0.0158240436
0.015833988
0.0158439387
0.0158538956
0.0158638588
0.0158738282
0.0158838039
0.0158937859
0.0159037741
0.0159137686
0.0159237694
0.0159337765
0.0159437898
0.0159538095
0.0159638354
0.0159738677
0.0159839062
0.0159939511
0.0160040022
0.0160140597
0.0160241235
0.0160341937
0.0160442701
0.0160543529
0.016064442
0.0160745375
0.0160846392
0.0160947474
0.0161048619
0.0161149827
0.0161251099
0.0161352435
0.0161453834
0.0161555298
0.0161656824
0.0161758415
0.0161860069
0.0161961788
0.016206357
0.0162165416
0.0162267326
0.01623693
0.0162471339
0.0162573441
0.0162675607
0.0162777838
0.0162880133
0.0162982492
0.0163084916
0.0163187403
0.0163289956
0.0163392572
0.0163495253
0.0163597999
0.0163700809
0.0163803684
0.0163906623
0.0164009628
0.0164112696
0.016421583
0.0164319028
0.0164422291
0.0164525619
0.0164629012
0.016473247
0.0164835993
0.0164939581
0.0165043234
0.0165146952
0.0165250736
0.0165354584
0.0165458498
0.0165562477
0.0165666521
0.0165770631
0.0165874806
0.0165979047
0.0166083353
0.0166187725
0.0166292162
0.0166396665
0.0166501233
0.0166605867
0.0166710567
0.0166815333
0.0166920164
0.0167025062
0.0167130025
0.0167235054
0.0167340149
0.0167445311
0.0167550538
0.0167655831
0.0167761191
0.0167866617
0.0167972109
0.0168077667
0.0168183291
0.0168288982
0.016839474
0.0168500563
0.0168606454
0.016871241
0.0168818434
0.0168924524
0.016903068
0.0169136904
0.0169243194
0.016934955
0.0169455974
0.0169562464
0.0169669022
0.0169775646
0.0169882338
0.0169989096
0.0170095921
0.0170202814
0.0170309773
0.01704168
0.0170523894
0.0170631056
0.0170738285
0.0170845581
0.0170952944
0.0171060375
0.0171167873
0.0171275439
0.0171383073
0.0171490774
0.0171598543
0.0171706379
0.0171814284
0.0171922256
0.0172030296
0.0172138404
0.0172246579
0.0172354823
0.0172463134
0.0172571514
0.0172679962
0.0172788478
0.0172897062
0.0173005714
0.0173114435
0.0173223224
0.0173332081
0.0173441007
0.0173550001
0.0173659063
0.0173768194
0.0173877394
0.0173986662
0.0174095999
0.0174205404
0.0174314878
0.0174424421
0.0174534033
0.0174643714
0.0174753464
0.0174863282
0.017497317
0.0175083126
0.0175193152
0.0175303247
0.0175413411
0.0175523644
0.0175633946
0.0175744318
0.0175854759
0.0175965269
0.0176075849
0.0176186498
0.0176297217
0.0176408006
0.0176518864
0.0176629791
0.0176740789
0.0176851856
0.0176962992
0.0177074199
0.0177185476
0.0177296822
0.0177408238
0.0177519725
0.0177631281
0.0177742908
0.0177854604
0.0177966371
0.0178078208
0.0178190115
0.0178302093
0.017841414
0.0178526259
0.0178638447
0.0178750707
0.0178863036
0.0178975437
0.0179087908
0.0179200449
0.0179313061
0.0179425744
0.0179538498
0.0179651323
0.0179764218
0.0179877185
0.0179990222
0.018010333
0.018021651
0.018032976
0.0180443082
0.0180556475
0.0180669939
0.0180783474
0.0180897081
0.0181010759
0.0181124509
0.018123833
0.0181352222
0.0181466186
0.0181580222
0.0181694329
0.0181808508
0.0181922758
0.0182037081
0.0182151475
0.0182265941
0.0182380479
0.0182495089
0.0182609771
0.0182724525
0.0182839351
0.0182954249
0.018306922
0.0183184262
0.0183299377
0.0183414565
0.0183529824
0.0183645156
0.0183760561
0.0183876037
0.0183991587
0.0184107209
0.0184222904
0.0184338671
0.0184454511
0.0184570424
0.018468641
0.0184802468
0.01849186
0.0185034804
0.0185151081
0.0185267432
0.0185383855
0.0185500352
0.0185616922
0.0185733565
0.0185850281
0.0185967071
0.0186083934
0.0186200871
0.018631788
0.0186434964
0.0186552121
0.0186669351
0.0186786656
0.0186904034
0.0187021485
0.0187139011
0.018725661
0.0187374283
0.018749203
0.0187609851
0.0187727746
0.0187845715
0.0187963758
0.0188081876
0.0188200067
0.0188318333
0.0188436673
0.0188555087
0.0188673576
0.0188792139
0.0188910777
0.0189029489
0.0189148276
0.0189267138
0.0189386074
0.0189505084
0.018962417
0.018974333
0.0189862566
0.0189981876
0.0190101261
0.0190220721
0.0190340256
0.0190459866
0.0190579551
0.0190699312
0.0190819148
0.0190939059
0.0191059045
0.0191179107
0.0191299244
0.0191419457
0.0191539745
0.0191660108
0.0191780548
0.0191901063
0.0192021653
0.019214232
0.0192263062
0.019238388
0.0192504774
0.0192625744
0.019274679
0.0192867911
0.0192989109
0.0193110384
0.0193231734
0.019335316
0.0193474663
0.0193596242
0.0193717898
0.019383963
0.0193961438
0.0194083323
0.0194205285
0.0194327323
0.0194449437
0.0194571629
0.0194693897
0.0194816242
0.0194938664
0.0195061163
0.0195183738
0.0195306391
0.0195429121
0.0195551928
0.0195674812
0.0195797773
0.0195920811
0.0196043927
0.019616712
0.019629039
0.0196413738
0.0196537164
0.0196660666
0.0196784247
0.0196907905
0.0197031641
0.0197155454
0.0197279345
0.0197403314
0.0197527361
0.0197651486
0.0197775689
0.019789997
0.0198024329
0.0198148766
0.0198273281
0.0198397874
0.0198522546
0.0198647296
0.0198772124
0.0198897031
0.0199022016
0.019914708
0.0199272222
0.0199397443
0.0199522743
0.0199648121
0.0199773578
0.0199899114
0.0200024728
0.0200150422
0.0200276195
0.0200402046
0.0200527977
0.0200653986
0.0200780075
0.0200906243
0.020103249
0.0201158817
0.0201285223
0.0201411708
0.0201538273
0.0201664917
0.0201791641
0.0201918444
0.0202045328
0.020217229
0.0202299333
0.0202426455
0.0202553657
0.0202680939
0.0202808301
0.0202935743
0.0203063265
0.0203190868
0.020331855
0.0203446312
0.0203574155
0.0203702078
0.0203830082
0.0203958166
0.020408633
0.0204214575
0.02043429
0.0204471306
0.0204599792
0.020472836
0.0204857008
0.0204985737
0.0205114546
0.0205243437
0.0205372409
0.0205501461
0.0205630595
0.020575981
0.0205889105
0.0206018483
0.0206147941
0.0206277481
0.0206407102
0.0206536804
0.0206666588
0.0206796454
0.0206926401
0.0207056429
0.020718654
0.0207316732
0.0207447006
0.0207577361
0.0207707799
0.0207838318
0.020796892
0.0208099603
0.0208230369
0.0208361217
0.0208492146
0.0208623159
0.0208754253
0.020888543
0.0209016689
0.0209148031
0.0209279455
0.0209410961
0.0209542551
0.0209674222
0.0209805977
0.0209937814
0.0210069735
0.0210201738
0.0210333823
0.0210465992
0.0210598244
0.0210730579
0.0210862997
0.0210995499
0.0211128083
0.0211260751
0.0211393502
0.0211526336
0.0211659254
0.0211792256
0.0211925341
0.0212058509
0.0212191761
0.0212325097
0.0212458517
0.021259202
0.0212725607
0.0212859279
0.0212993034
0.0213126873
0.0213260796
0.0213394803
0.0213528895
0.021366307
0.021379733
0.0213931675
0.0214066103
0.0214200617
0.0214335214
0.0214469896
0.0214604663
0.0214739514
0.021487445
0.0215009471
0.0215144577
0.0215279767
0.0215415043
0.0215550403
0.0215685848
0.0215821379
0.0215956994
0.0216092695
0.0216228481
0.0216364352
0.0216500309
0.0216636351
0.0216772478
0.0216908691
0.021704499
0.0217181374
0.0217317843
0.0217454399
0.021759104
0.0217727767
0.021786458
0.0218001479
0.0218138464
0.0218275535
0.0218412692
0.0218549935
0.0218687264
0.0218824679
0.0218962181
0.0219099769
0.0219237444
0.0219375205
0.0219513053
0.0219650987
0.0219789008
0.0219927115
0.022006531
0.0220203591
0.0220341958
0.0220480413
0.0220618955
0.0220757584
0.02208963
0.0221035102
0.0221173993
0.022131297
0.0221452035
0.0221591187
0.0221730426
0.0221869753
0.0222009167
0.0222148669
0.0222288258
0.0222427936
0.02225677
0.0222707553
0.0222847494
0.0222987522
0.0223127638
0.0223267843
0.0223408135
0.0223548516
0.0223688984
0.0223829541
0.0223970186
0.022411092
0.0224251742
0.0224392652
0.0224533651
0.0224674738
0.0224815914
0.0224957179
0.0225098532
0.0225239974
0.0225381505
0.0225523125
0.0225664834
0.0225806632
0.0225948519
0.0226090495
0.022623256
0.0226374714
0.0226516958
0.0226659291
0.0226801713
0.0226944225
0.0227086826
0.0227229517
0.0227372297
0.0227515168
0.0227658127
0.0227801177
0.0227944317
0.0228087546
0.0228230865
0.0228374275
0.0228517774
0.0228661364
0.0228805043
0.0228948813
0.0229092673
0.0229236624
0.0229380665
0.0229524796
0.0229669018
0.0229813331
0.0229957734
0.0230102228
0.0230246813
0.0230391488
0.0230536254
0.0230681111
0.0230826059
0.0230971099
0.0231116229
0.023126145
0.0231406763
0.0231552167
0.0231697662
0.0231843249
0.0231988926
0.0232134696
0.0232280557
0.023242651
0.0232572554
0.023271869
0.0232864918
0.0233011237
0.0233157649
0.0233304152
0.0233450748
0.0233597435
0.0233744215
0.0233891086
0.023403805
0.0234185107
0.0234332255
0.0234479497
0.023462683
0.0234774256
0.0234921775
0.0235069386
0.023521709
0.0235364887
0.0235512776
0.0235660759
0.0235808834
0.0235957003
0.0236105264
0.0236253619
0.0236402066
0.0236550607
0.0236699241
0.0236847969
0.023699679
0.0237145704
0.0237294712
0.0237443814
0.0237593009
0.0237742297
0.023789168
0.0238041156
0.0238190727
0.0238340391
0.0238490149
0.0238640001
0.0238789947
0.0238939988
0.0239090123
0.0239240352
0.0239390675
0.0239541093
0.0239691605
0.0239842211
0.0239992913
0.0240143709
0.0240294599
0.0240445584
0.0240596665
0.024074784
0.024089911
0.0241050475
0.0241201935
0.024135349
0.024150514
0.0241656885
0.0241808726
0.0241960662
0.0242112694
0.0242264821
0.0242417044
0.0242569362
0.0242721776
0.0242874285
0.024302689
0.0243179592
0.0243332389
0.0243485282
0.0243638271
0.0243791356
0.0243944537
0.0244097814
0.0244251188
0.0244404658
0.0244558224
0.0244711887
0.0244865646
0.0245019502
0.0245173454
0.0245327503
0.0245481649
0.0245635892
0.0245790231
0.0245944667
0.0246099201
0.0246253831
0.0246408559
0.0246563383
0.0246718305
0.0246873324
0.0247028441
0.0247183655
0.0247338966
0.0247494375
0.0247649881
0.0247805485
0.0247961187
0.0248116987
0.0248272884
0.024842888
0.0248584973
0.0248741164
0.0248897454
0.0249053841
0.0249210327
0.0249366911
0.0249523593
0.0249680374
0.0249837253
0.0249994231
0.0250151307
0.0250308482
0.0250465755
0.0250623127
0.0250780599
0.0250938169
0.0251095837
0.0251253605
0.0251411472
0.0251569439
0.0251727504
0.0251885668
0.0252043932
0.0252202296
0.0252360758
0.0252519321
0.0252677982
0.0252836744
0.0252995605
0.0253154566
0.0253313626
0.0253472787
0.0253632047
0.0253791408
0.0253950868
0.0254110429
0.025427009
0.0254429851
0.0254589712
0.0254749674
0.0254909736
0.0255069899
0.0255230162
0.0255390526
0.0255550991
0.0255711556
0.0255872222
0.0256032989
0.0256193857
0.0256354826
0.0256515897
0.0256677068
0.025683834
0.0256999714
0.0257161189
0.0257322765
0.0257484443
0.0257646223
0.0257808104
0.0257970086
0.025813217
0.0258294356
0.0258456644
0.0258619034
0.0258781526
0.025894412
0.0259106816
0.0259269614
0.0259432514
0.0259595517
0.0259758621
0.0259921829
0.0260085138
0.0260248551
0.0260412066
0.0260575683
0.0260739404
0.0260903227
0.0261067153
0.0261231182
0.0261395313
0.0261559548
0.0261723886
0.0261888328
0.0262052872
0.026221752
0.0262382271
0.0262547126
0.0262712084
0.0262877146
0.0263042311
0.026320758
0.0263372953
0.0263538429
0.026370401
0.0263869694
0.0264035483
0.0264201376
0.0264367372
0.0264533473
0.0264699679
0.0264865988
0.0265032402
0.0265198921
0.0265365544
0.0265532271
0.0265699104
0.0265866041
0.0266033083
0.026620023
0.0266367481
0.0266534838
0.02667023
0.0266869867
0.0267037539
0.0267205317
0.0267373199
0.0267541188
0.0267709281
0.026787748
0.0268045785
0.0268214196
0.0268382712
0.0268551334
0.0268720062
0.0268888896
0.0269057835
0.0269226881
0.0269396033
0.0269565291
0.0269734656
0.0269904127
0.0270073704
0.0270243388
0.0270413178
0.0270583075
0.0270753078
0.0270923188
0.0271093405
0.0271263729
0.027143416
0.0271604698
0.0271775342
0.0271946094
0.0272116954
0.027228792
0.0272458994
0.0272630175
0.0272801464
0.027297286
0.0273144364
0.0273315975
0.0273487694
0.0273659521
0.0273831456
0.0274003499
0.027417565
0.0274347909
0.0274520276
0.0274692751
0.0274865335
0.0275038027
0.0275210827
0.0275383736
0.0275556753
0.0275729879
0.0275903114
0.0276076457
0.027624991
0.0276423471
0.0276597141
0.027677092
0.0276944808
0.0277118806
0.0277292912
0.0277467128
0.0277641454
0.0277815888
0.0277990433
0.0278165087
0.027833985
0.0278514723
0.0278689706
0.0278864799
0.0279040002
0.0279215314
0.0279390737
0.027956627
0.0279741913
0.0279917667
0.028009353
0.0280269505
0.0280445589
0.0280621784
0.028079809
0.0280974506
0.0281151034
0.0281327672
0.0281504421
0.028168128
0.0281858251
0.0282035333
0.0282212526
0.0282389831
0.0282567246
0.0282744773
0.0282922412
0.0283100162
0.0283278023
0.0283455997
0.0283634082
0.0283812278
0.0283990587
0.0284169008
0.028434754
0.0284526185
0.0284704942
0.0284883811
0.0285062792
0.0285241885
0.0285421092
0.028560041
0.0285779841
0.0285959385
0.0286139041
0.0286318811
0.0286498693
0.0286678688
0.0286858796
0.0287039017
0.0287219351
0.0287399798
0.0287580359
0.0287761033
0.0287941821
0.0288122722
0.0288303736
0.0288484864
0.0288666106
0.0288847462
0.0289028931
0.0289210514
0.0289392212
0.0289574023
0.0289755948
0.0289937988
0.0290120142
0.029030241
0.0290484793
0.029066729
0.0290849902
0.0291032629
0.029121547
0.0291398426
0.0291581496
0.0291764682
0.0291947982
0.0292131398
0.0292314929
0.0292498575
0.0292682336
0.0292866213
0.0293050205
0.0293234313
0.0293418536
0.0293602874
0.0293787329
0.0293971899
0.0294156585
0.0294341387
0.0294526305
0.0294711339
0.029489649
0.0295081756
0.0295267139
0.0295452638
0.0295638254
0.0295823986
0.0296009834
0.02961958
0.0296381882
0.029656808
0.0296754396
0.0296940829
0.0297127378
0.0297314045
0.0297500829
0.029768773
0.0297874749
0.0298061885
0.0298249138
0.0298436509
0.0298623997
0.0298811604
0.0298999327
0.0299187169
0.0299375129
0.0299563206
0.0299751402
0.0299939716
0.0300128148
0.0300316698
0.0300505367
0.0300694154
0.0300883059
0.0301072084
0.0301261226
0.0301450488
0.0301639868
0.0301829367
0.0302018985
0.0302208722
0.0302398578
0.0302588554
0.0302778648
0.0302968862
0.0303159196
0.0303349648
0.0303540221
0.0303730912
0.0303921724
0.0304112655
0.0304303706
0.0304494878
0.0304686169
0.030487758
0.0305069111
0.0305260762
0.0305452534
0.0305644426
0.0305836439
0.0306028572
0.0306220826
0.03064132
0.0306605695
0.0306798311
0.0306991048
0.0307183906
0.0307376884
0.0307569984
0.0307763205
0.0307956548
0.0308150011
0.0308343597
0.0308537303
0.0308731131
0.0308925081
0.0309119153
0.0309313346
0.0309507661
0.0309702099
0.0309896658
0.0310091339
0.0310286143
0.0310481069
0.0310676117
0.0310871287
0.031106658
0.0311261996
0.0311457534
0.0311653195
0.0311848979
0.0312044886
0.0312240915
0.0312437068
0.0312633344
0.0312829742
0.0313026265
0.031322291
0.0313419679
0.0313616571
0.0313813587
0.0314010727
0.031420799
0.0314405378
0.0314602889
0.0314800524
0.0314998283
0.0315196166
0.0315394173
0.0315592304
0.031579056
0.0315988941
0.0316187446
0.0316386075
0.0316584829
0.0316783708
0.0316982711
0.031718184
0.0317381093
0.0317580472
0.0317779975
0.0317979604
0.0318179358
0.0318379238
0.0318579243
0.0318779373
0.0318979629
0.0319180011
0.0319380518
0.0319581151
0.0319781911
0.0319982796
0.0320183807
0.0320384944
0.0320586208
0.0320787598
0.0320989114
0.0321190757
0.0321392526
0.0321594422
