# Pulseq sequence file
# Created by MATLAB mr toolbox

# Created for Pulseq-CEST
# https://pulseq-cest.github.io/
# Created by: Kai Herz
# Created at: 28-Sep-2021 14:40:20

[VERSION]
major 1
minor 3
revision 1

[DEFINITIONS]
B0 7 
B1rms 0.570115695 
DCsat 0.6 
M0_offset -300 
Trec 0 
Trec_M0 12 
Tsat 2.99 
n_pulses 120 
num_meas 56 
offsets_ppm -300 -100 -50 -20 -12 -9 -7.25 -6.25 -5.5 -4.7 -4 -3.3 -2.7 -2 -1.7 -1.5 -1.1 -0.9 -0.6 -0.4 0 0.4 0.6 0.95 1.1 1.25 1.4 1.55 1.7 1.85 2 2.15 2.3 2.45 2.6 2.75 2.9 3.05 3.2 3.35 3.5 3.65 3.8 3.95 4.1 4.25 4.4 4.7 5.25 6.25 8 12 20 50 100 -300 
seq_id_string MultiPool_7T_001_0p57uT_120Gauss_DC60_3s_brain 
td 0.01 
tp 0.015 

# Format of blocks:
#  #  D RF  GX  GY  GZ ADC EXT
[BLOCKS]
    1  1  0   0   0   0  0  0
    2  0  1   0   0   0  0  0
    3  2  0   0   0   0  0  0
    4  0  2   0   0   0  0  0
    5  2  0   0   0   0  0  0
    6  0  3   0   0   0  0  0
    7  2  0   0   0   0  0  0
    8  0  4   0   0   0  0  0
    9  2  0   0   0   0  0  0
   10  0  5   0   0   0  0  0
   11  2  0   0   0   0  0  0
   12  0  6   0   0   0  0  0
   13  2  0   0   0   0  0  0
   14  0  7   0   0   0  0  0
   15  2  0   0   0   0  0  0
   16  0  8   0   0   0  0  0
   17  2  0   0   0   0  0  0
   18  0  9   0   0   0  0  0
   19  2  0   0   0   0  0  0
   20  0 10   0   0   0  0  0
   21  2  0   0   0   0  0  0
   22  0 11   0   0   0  0  0
   23  2  0   0   0   0  0  0
   24  0 12   0   0   0  0  0
   25  2  0   0   0   0  0  0
   26  0 13   0   0   0  0  0
   27  2  0   0   0   0  0  0
   28  0 14   0   0   0  0  0
   29  2  0   0   0   0  0  0
   30  0 15   0   0   0  0  0
   31  2  0   0   0   0  0  0
   32  0 16   0   0   0  0  0
   33  2  0   0   0   0  0  0
   34  0 17   0   0   0  0  0
   35  2  0   0   0   0  0  0
   36  0 18   0   0   0  0  0
   37  2  0   0   0   0  0  0
   38  0 19   0   0   0  0  0
   39  2  0   0   0   0  0  0
   40  0 20   0   0   0  0  0
   41  2  0   0   0   0  0  0
   42  0 21   0   0   0  0  0
   43  2  0   0   0   0  0  0
   44  0 22   0   0   0  0  0
   45  2  0   0   0   0  0  0
   46  0 23   0   0   0  0  0
   47  2  0   0   0   0  0  0
   48  0 24   0   0   0  0  0
   49  2  0   0   0   0  0  0
   50  0 25   0   0   0  0  0
   51  2  0   0   0   0  0  0
   52  0 26   0   0   0  0  0
   53  2  0   0   0   0  0  0
   54  0 27   0   0   0  0  0
   55  2  0   0   0   0  0  0
   56  0 28   0   0   0  0  0
   57  2  0   0   0   0  0  0
   58  0 29   0   0   0  0  0
   59  2  0   0   0   0  0  0
   60  0 30   0   0   0  0  0
   61  2  0   0   0   0  0  0
   62  0 31   0   0   0  0  0
   63  2  0   0   0   0  0  0
   64  0 32   0   0   0  0  0
   65  2  0   0   0   0  0  0
   66  0 33   0   0   0  0  0
   67  2  0   0   0   0  0  0
   68  0 34   0   0   0  0  0
   69  2  0   0   0   0  0  0
   70  0 35   0   0   0  0  0
   71  2  0   0   0   0  0  0
   72  0 36   0   0   0  0  0
   73  2  0   0   0   0  0  0
   74  0 37   0   0   0  0  0
   75  2  0   0   0   0  0  0
   76  0 38   0   0   0  0  0
   77  2  0   0   0   0  0  0
   78  0 39   0   0   0  0  0
   79  2  0   0   0   0  0  0
   80  0 40   0   0   0  0  0
   81  2  0   0   0   0  0  0
   82  0 41   0   0   0  0  0
   83  2  0   0   0   0  0  0
   84  0 42   0   0   0  0  0
   85  2  0   0   0   0  0  0
   86  0 43   0   0   0  0  0
   87  2  0   0   0   0  0  0
   88  0 44   0   0   0  0  0
   89  2  0   0   0   0  0  0
   90  0 45   0   0   0  0  0
   91  2  0   0   0   0  0  0
   92  0 46   0   0   0  0  0
   93  2  0   0   0   0  0  0
   94  0 47   0   0   0  0  0
   95  2  0   0   0   0  0  0
   96  0 48   0   0   0  0  0
   97  2  0   0   0   0  0  0
   98  0 49   0   0   0  0  0
   99  2  0   0   0   0  0  0
  100  0 50   0   0   0  0  0
  101  2  0   0   0   0  0  0
  102  0 51   0   0   0  0  0
  103  2  0   0   0   0  0  0
  104  0 52   0   0   0  0  0
  105  2  0   0   0   0  0  0
  106  0 53   0   0   0  0  0
  107  2  0   0   0   0  0  0
  108  0 54   0   0   0  0  0
  109  2  0   0   0   0  0  0
  110  0 55   0   0   0  0  0
  111  2  0   0   0   0  0  0
  112  0 56   0   0   0  0  0
  113  2  0   0   0   0  0  0
  114  0 57   0   0   0  0  0
  115  2  0   0   0   0  0  0
  116  0 58   0   0   0  0  0
  117  2  0   0   0   0  0  0
  118  0 59   0   0   0  0  0
  119  2  0   0   0   0  0  0
  120  0 60   0   0   0  0  0
  121  2  0   0   0   0  0  0
  122  0 61   0   0   0  0  0
  123  2  0   0   0   0  0  0
  124  0 62   0   0   0  0  0
  125  2  0   0   0   0  0  0
  126  0 63   0   0   0  0  0
  127  2  0   0   0   0  0  0
  128  0 64   0   0   0  0  0
  129  2  0   0   0   0  0  0
  130  0 65   0   0   0  0  0
  131  2  0   0   0   0  0  0
  132  0 66   0   0   0  0  0
  133  2  0   0   0   0  0  0
  134  0 67   0   0   0  0  0
  135  2  0   0   0   0  0  0
  136  0 68   0   0   0  0  0
  137  2  0   0   0   0  0  0
  138  0 69   0   0   0  0  0
  139  2  0   0   0   0  0  0
  140  0 70   0   0   0  0  0
  141  2  0   0   0   0  0  0
  142  0 71   0   0   0  0  0
  143  2  0   0   0   0  0  0
  144  0 72   0   0   0  0  0
  145  2  0   0   0   0  0  0
  146  0 73   0   0   0  0  0
  147  2  0   0   0   0  0  0
  148  0 74   0   0   0  0  0
  149  2  0   0   0   0  0  0
  150  0 75   0   0   0  0  0
  151  2  0   0   0   0  0  0
  152  0 76   0   0   0  0  0
  153  2  0   0   0   0  0  0
  154  0 77   0   0   0  0  0
  155  2  0   0   0   0  0  0
  156  0 78   0   0   0  0  0
  157  2  0   0   0   0  0  0
  158  0 79   0   0   0  0  0
  159  2  0   0   0   0  0  0
  160  0 80   0   0   0  0  0
  161  2  0   0   0   0  0  0
  162  0 81   0   0   0  0  0
  163  2  0   0   0   0  0  0
  164  0 82   0   0   0  0  0
  165  2  0   0   0   0  0  0
  166  0 83   0   0   0  0  0
  167  2  0   0   0   0  0  0
  168  0 84   0   0   0  0  0
  169  2  0   0   0   0  0  0
  170  0 85   0   0   0  0  0
  171  2  0   0   0   0  0  0
  172  0 86   0   0   0  0  0
  173  2  0   0   0   0  0  0
  174  0 87   0   0   0  0  0
  175  2  0   0   0   0  0  0
  176  0 88   0   0   0  0  0
  177  2  0   0   0   0  0  0
  178  0 89   0   0   0  0  0
  179  2  0   0   0   0  0  0
  180  0 90   0   0   0  0  0
  181  2  0   0   0   0  0  0
  182  0 91   0   0   0  0  0
  183  2  0   0   0   0  0  0
  184  0 92   0   0   0  0  0
  185  2  0   0   0   0  0  0
  186  0 93   0   0   0  0  0
  187  2  0   0   0   0  0  0
  188  0 94   0   0   0  0  0
  189  2  0   0   0   0  0  0
  190  0 95   0   0   0  0  0
  191  2  0   0   0   0  0  0
  192  0 96   0   0   0  0  0
  193  2  0   0   0   0  0  0
  194  0 97   0   0   0  0  0
  195  2  0   0   0   0  0  0
  196  0 98   0   0   0  0  0
  197  2  0   0   0   0  0  0
  198  0 99   0   0   0  0  0
  199  2  0   0   0   0  0  0
  200  0 100   0   0   0  0  0
  201  2  0   0   0   0  0  0
  202  0 101   0   0   0  0  0
  203  2  0   0   0   0  0  0
  204  0 102   0   0   0  0  0
  205  2  0   0   0   0  0  0
  206  0 103   0   0   0  0  0
  207  2  0   0   0   0  0  0
  208  0 104   0   0   0  0  0
  209  2  0   0   0   0  0  0
  210  0 105   0   0   0  0  0
  211  2  0   0   0   0  0  0
  212  0 106   0   0   0  0  0
  213  2  0   0   0   0  0  0
  214  0 107   0   0   0  0  0
  215  2  0   0   0   0  0  0
  216  0 108   0   0   0  0  0
  217  2  0   0   0   0  0  0
  218  0 109   0   0   0  0  0
  219  2  0   0   0   0  0  0
  220  0 110   0   0   0  0  0
  221  2  0   0   0   0  0  0
  222  0 111   0   0   0  0  0
  223  2  0   0   0   0  0  0
  224  0 112   0   0   0  0  0
  225  2  0   0   0   0  0  0
  226  0 113   0   0   0  0  0
  227  2  0   0   0   0  0  0
  228  0 114   0   0   0  0  0
  229  2  0   0   0   0  0  0
  230  0 115   0   0   0  0  0
  231  2  0   0   0   0  0  0
  232  0 116   0   0   0  0  0
  233  2  0   0   0   0  0  0
  234  0 117   0   0   0  0  0
  235  2  0   0   0   0  0  0
  236  0 118   0   0   0  0  0
  237  2  0   0   0   0  0  0
  238  0 119   0   0   0  0  0
  239  2  0   0   0   0  0  0
  240  0 120   0   0   0  0  0
  241  0  0   1   1   1  0  0
  242  0  0   0   0   0  1  0
  243  0 121   0   0   0  0  0
  244  2  0   0   0   0  0  0
  245  0 122   0   0   0  0  0
  246  2  0   0   0   0  0  0
  247  0 123   0   0   0  0  0
  248  2  0   0   0   0  0  0
  249  0 124   0   0   0  0  0
  250  2  0   0   0   0  0  0
  251  0 125   0   0   0  0  0
  252  2  0   0   0   0  0  0
  253  0 126   0   0   0  0  0
  254  2  0   0   0   0  0  0
  255  0 127   0   0   0  0  0
  256  2  0   0   0   0  0  0
  257  0 128   0   0   0  0  0
  258  2  0   0   0   0  0  0
  259  0 129   0   0   0  0  0
  260  2  0   0   0   0  0  0
  261  0 130   0   0   0  0  0
  262  2  0   0   0   0  0  0
  263  0 131   0   0   0  0  0
  264  2  0   0   0   0  0  0
  265  0 132   0   0   0  0  0
  266  2  0   0   0   0  0  0
  267  0 133   0   0   0  0  0
  268  2  0   0   0   0  0  0
  269  0 134   0   0   0  0  0
  270  2  0   0   0   0  0  0
  271  0 135   0   0   0  0  0
  272  2  0   0   0   0  0  0
  273  0 136   0   0   0  0  0
  274  2  0   0   0   0  0  0
  275  0 137   0   0   0  0  0
  276  2  0   0   0   0  0  0
  277  0 138   0   0   0  0  0
  278  2  0   0   0   0  0  0
  279  0 139   0   0   0  0  0
  280  2  0   0   0   0  0  0
  281  0 140   0   0   0  0  0
  282  2  0   0   0   0  0  0
  283  0 141   0   0   0  0  0
  284  2  0   0   0   0  0  0
  285  0 142   0   0   0  0  0
  286  2  0   0   0   0  0  0
  287  0 143   0   0   0  0  0
  288  2  0   0   0   0  0  0
  289  0 144   0   0   0  0  0
  290  2  0   0   0   0  0  0
  291  0 145   0   0   0  0  0
  292  2  0   0   0   0  0  0
  293  0 146   0   0   0  0  0
  294  2  0   0   0   0  0  0
  295  0 147   0   0   0  0  0
  296  2  0   0   0   0  0  0
  297  0 148   0   0   0  0  0
  298  2  0   0   0   0  0  0
  299  0 149   0   0   0  0  0
  300  2  0   0   0   0  0  0
  301  0 150   0   0   0  0  0
  302  2  0   0   0   0  0  0
  303  0 151   0   0   0  0  0
  304  2  0   0   0   0  0  0
  305  0 152   0   0   0  0  0
  306  2  0   0   0   0  0  0
  307  0 153   0   0   0  0  0
[RF]
1      51.3013 1 2 100 -89410.4 0
2      51.3013 1 2 100 -89410.4 5.86102
3      51.3013 1 2 100 -89410.4 5.43886
4      51.3013 1 2 100 -89410.4 5.01669
5      51.3013 1 2 100 -89410.4 4.59453
6      51.3013 1 2 100 -89410.4 4.17236
7      51.3013 1 2 100 -89410.4 3.7502
8      51.3013 1 2 100 -89410.4 3.32803
9      51.3013 1 2 100 -89410.4 2.90587
10      51.3013 1 2 100 -89410.4 2.48371
11      51.3013 1 2 100 -89410.4 2.06154
12      51.3013 1 2 100 -89410.4 1.63938
13      51.3013 1 2 100 -89410.4 1.21721
14      51.3013 1 2 100 -89410.4 0.795047
15      51.3013 1 2 100 -89410.4 0.372883
16      51.3013 1 2 100 -89410.4 6.2339
17      51.3013 1 2 100 -89410.4 5.81174
18      51.3013 1 2 100 -89410.4 5.38957
19      51.3013 1 2 100 -89410.4 4.96741
20      51.3013 1 2 100 -89410.4 4.54525
21      51.3013 1 2 100 -89410.4 4.12308
22      51.3013 1 2 100 -89410.4 3.70092
23      51.3013 1 2 100 -89410.4 3.27875
24      51.3013 1 2 100 -89410.4 2.85659
25      51.3013 1 2 100 -89410.4 2.43442
26      51.3013 1 2 100 -89410.4 2.01226
27      51.3013 1 2 100 -89410.4 1.59009
28      51.3013 1 2 100 -89410.4 1.16793
29      51.3013 1 2 100 -89410.4 0.745766
30      51.3013 1 2 100 -89410.4 0.323601
31      51.3013 1 2 100 -89410.4 6.18462
32      51.3013 1 2 100 -89410.4 5.76246
33      51.3013 1 2 100 -89410.4 5.34029
34      51.3013 1 2 100 -89410.4 4.91813
35      51.3013 1 2 100 -89410.4 4.49596
36      51.3013 1 2 100 -89410.4 4.0738
37      51.3013 1 2 100 -89410.4 3.65164
38      51.3013 1 2 100 -89410.4 3.22947
39      51.3013 1 2 100 -89410.4 2.80731
40      51.3013 1 2 100 -89410.4 2.38514
41      51.3013 1 2 100 -89410.4 1.96298
42      51.3013 1 2 100 -89410.4 1.54081
43      51.3013 1 2 100 -89410.4 1.11865
44      51.3013 1 2 100 -89410.4 0.696484
45      51.3013 1 2 100 -89410.4 0.27432
46      51.3013 1 2 100 -89410.4 6.13534
47      51.3013 1 2 100 -89410.4 5.71318
48      51.3013 1 2 100 -89410.4 5.29101
49      51.3013 1 2 100 -89410.4 4.86885
50      51.3013 1 2 100 -89410.4 4.44668
51      51.3013 1 2 100 -89410.4 4.02452
52      51.3013 1 2 100 -89410.4 3.60235
53      51.3013 1 2 100 -89410.4 3.18019
54      51.3013 1 2 100 -89410.4 2.75803
55      51.3013 1 2 100 -89410.4 2.33586
56      51.3013 1 2 100 -89410.4 1.9137
57      51.3013 1 2 100 -89410.4 1.49153
58      51.3013 1 2 100 -89410.4 1.06937
59      51.3013 1 2 100 -89410.4 0.647203
60      51.3013 1 2 100 -89410.4 0.225038
61      51.3013 1 2 100 -89410.4 6.08606
62      51.3013 1 2 100 -89410.4 5.66389
63      51.3013 1 2 100 -89410.4 5.24173
64      51.3013 1 2 100 -89410.4 4.81957
65      51.3013 1 2 100 -89410.4 4.3974
66      51.3013 1 2 100 -89410.4 3.97524
67      51.3013 1 2 100 -89410.4 3.55307
68      51.3013 1 2 100 -89410.4 3.13091
69      51.3013 1 2 100 -89410.4 2.70874
70      51.3013 1 2 100 -89410.4 2.28658
71      51.3013 1 2 100 -89410.4 1.86441
72      51.3013 1 2 100 -89410.4 1.44225
73      51.3013 1 2 100 -89410.4 1.02009
74      51.3013 1 2 100 -89410.4 0.597921
75      51.3013 1 2 100 -89410.4 0.175757
76      51.3013 1 2 100 -89410.4 6.03678
77      51.3013 1 2 100 -89410.4 5.61461
78      51.3013 1 2 100 -89410.4 5.19245
79      51.3013 1 2 100 -89410.4 4.77028
80      51.3013 1 2 100 -89410.4 4.34812
81      51.3013 1 2 100 -89410.4 3.92596
82      51.3013 1 2 100 -89410.4 3.50379
83      51.3013 1 2 100 -89410.4 3.08163
84      51.3013 1 2 100 -89410.4 2.65946
85      51.3013 1 2 100 -89410.4 2.2373
86      51.3013 1 2 100 -89410.4 1.81513
87      51.3013 1 2 100 -89410.4 1.39297
88      51.3013 1 2 100 -89410.4 0.970804
89      51.3013 1 2 100 -89410.4 0.54864
90      51.3013 1 2 100 -89410.4 0.126475
91      51.3013 1 2 100 -89410.4 5.9875
92      51.3013 1 2 100 -89410.4 5.56533
93      51.3013 1 2 100 -89410.4 5.14317
94      51.3013 1 2 100 -89410.4 4.721
95      51.3013 1 2 100 -89410.4 4.29884
96      51.3013 1 2 100 -89410.4 3.87667
97      51.3013 1 2 100 -89410.4 3.45451
98      51.3013 1 2 100 -89410.4 3.03234
99      51.3013 1 2 100 -89410.4 2.61018
100      51.3013 1 2 100 -89410.4 2.18802
101      51.3013 1 2 100 -89410.4 1.76585
102      51.3013 1 2 100 -89410.4 1.34369
103      51.3013 1 2 100 -89410.4 0.921523
104      51.3013 1 2 100 -89410.4 0.499358
105      51.3013 1 2 100 -89410.4 0.0771937
106      51.3013 1 2 100 -89410.4 5.93821
107      51.3013 1 2 100 -89410.4 5.51605
108      51.3013 1 2 100 -89410.4 5.09389
109      51.3013 1 2 100 -89410.4 4.67172
110      51.3013 1 2 100 -89410.4 4.24956
111      51.3013 1 2 100 -89410.4 3.82739
112      51.3013 1 2 100 -89410.4 3.40523
113      51.3013 1 2 100 -89410.4 2.98306
114      51.3013 1 2 100 -89410.4 2.5609
115      51.3013 1 2 100 -89410.4 2.13873
116      51.3013 1 2 100 -89410.4 1.71657
117      51.3013 1 2 100 -89410.4 1.29441
118      51.3013 1 2 100 -89410.4 0.872241
119      51.3013 1 2 100 -89410.4 0.450077
120      51.3013 1 2 100 -89410.4 0.0279122
121      51.3013 1 2 100 -29803.5 0
122      51.3013 1 2 100 -29803.5 6.14246
123      51.3013 1 2 100 -29803.5 6.00174
124      51.3013 1 2 100 -29803.5 5.86102
125      51.3013 1 2 100 -29803.5 5.7203
126      51.3013 1 2 100 -29803.5 5.57958
127      51.3013 1 2 100 -29803.5 5.43886
128      51.3013 1 2 100 -29803.5 5.29813
129      51.3013 1 2 100 -29803.5 5.15741
130      51.3013 1 2 100 -29803.5 5.01669
131      51.3013 1 2 100 -29803.5 4.87597
132      51.3013 1 2 100 -29803.5 4.73525
133      51.3013 1 2 100 -29803.5 4.59453
134      51.3013 1 2 100 -29803.5 4.45381
135      51.3013 1 2 100 -29803.5 4.31308
136      51.3013 1 2 100 -29803.5 4.17236
137      51.3013 1 2 100 -29803.5 4.03164
138      51.3013 1 2 100 -29803.5 3.89092
139      51.3013 1 2 100 -29803.5 3.7502
140      51.3013 1 2 100 -29803.5 3.60948
141      51.3013 1 2 100 -29803.5 3.46876
142      51.3013 1 2 100 -29803.5 3.32803
143      51.3013 1 2 100 -29803.5 3.18731
144      51.3013 1 2 100 -29803.5 3.04659
145      51.3013 1 2 100 -29803.5 2.90587
146      51.3013 1 2 100 -29803.5 2.76515
147      51.3013 1 2 100 -29803.5 2.62443
148      51.3013 1 2 100 -29803.5 2.48371
149      51.3013 1 2 100 -29803.5 2.34298
150      51.3013 1 2 100 -29803.5 2.20226
151      51.3013 1 2 100 -29803.5 2.06154
152      51.3013 1 2 100 -29803.5 1.92082
153      51.3013 1 2 100 -29803.5 1.7801
154      51.3013 1 2 100 -29803.5 1.63938
155      51.3013 1 2 100 -29803.5 1.49865
156      51.3013 1 2 100 -29803.5 1.35793
157      51.3013 1 2 100 -29803.5 1.21721
158      51.3013 1 2 100 -29803.5 1.07649
159      51.3013 1 2 100 -29803.5 0.935769
160      51.3013 1 2 100 -29803.5 0.795047
161      51.3013 1 2 100 -29803.5 0.654326
162      51.3013 1 2 100 -29803.5 0.513604
163      51.3013 1 2 100 -29803.5 0.372883
164      51.3013 1 2 100 -29803.5 0.232161
165      51.3013 1 2 100 -29803.5 0.0914399
166      51.3013 1 2 100 -29803.5 6.2339
167      51.3013 1 2 100 -29803.5 6.09318
168      51.3013 1 2 100 -29803.5 5.95246
169      51.3013 1 2 100 -29803.5 5.81174
170      51.3013 1 2 100 -29803.5 5.67102
171      51.3013 1 2 100 -29803.5 5.5303
172      51.3013 1 2 100 -29803.5 5.38957
173      51.3013 1 2 100 -29803.5 5.24885
174      51.3013 1 2 100 -29803.5 5.10813
175      51.3013 1 2 100 -29803.5 4.96741
176      51.3013 1 2 100 -29803.5 4.82669
177      51.3013 1 2 100 -29803.5 4.68597
178      51.3013 1 2 100 -29803.5 4.54525
179      51.3013 1 2 100 -29803.5 4.40452
180      51.3013 1 2 100 -29803.5 4.2638
181      51.3013 1 2 100 -29803.5 4.12308
182      51.3013 1 2 100 -29803.5 3.98236
183      51.3013 1 2 100 -29803.5 3.84164
184      51.3013 1 2 100 -29803.5 3.70092
185      51.3013 1 2 100 -29803.5 3.5602
186      51.3013 1 2 100 -29803.5 3.41947
187      51.3013 1 2 100 -29803.5 3.27875
188      51.3013 1 2 100 -29803.5 3.13803
189      51.3013 1 2 100 -29803.5 2.99731
190      51.3013 1 2 100 -29803.5 2.85659
191      51.3013 1 2 100 -29803.5 2.71587
192      51.3013 1 2 100 -29803.5 2.57515
193      51.3013 1 2 100 -29803.5 2.43442
194      51.3013 1 2 100 -29803.5 2.2937
195      51.3013 1 2 100 -29803.5 2.15298
196      51.3013 1 2 100 -29803.5 2.01226
197      51.3013 1 2 100 -29803.5 1.87154
198      51.3013 1 2 100 -29803.5 1.73082
199      51.3013 1 2 100 -29803.5 1.59009
200      51.3013 1 2 100 -29803.5 1.44937
201      51.3013 1 2 100 -29803.5 1.30865
202      51.3013 1 2 100 -29803.5 1.16793
203      51.3013 1 2 100 -29803.5 1.02721
204      51.3013 1 2 100 -29803.5 0.886487
205      51.3013 1 2 100 -29803.5 0.745766
206      51.3013 1 2 100 -29803.5 0.605044
207      51.3013 1 2 100 -29803.5 0.464323
208      51.3013 1 2 100 -29803.5 0.323601
209      51.3013 1 2 100 -29803.5 0.18288
210      51.3013 1 2 100 -29803.5 0.0421584
211      51.3013 1 2 100 -29803.5 6.18462
212      51.3013 1 2 100 -29803.5 6.0439
213      51.3013 1 2 100 -29803.5 5.90318
214      51.3013 1 2 100 -29803.5 5.76246
215      51.3013 1 2 100 -29803.5 5.62174
216      51.3013 1 2 100 -29803.5 5.48101
217      51.3013 1 2 100 -29803.5 5.34029
218      51.3013 1 2 100 -29803.5 5.19957
219      51.3013 1 2 100 -29803.5 5.05885
220      51.3013 1 2 100 -29803.5 4.91813
221      51.3013 1 2 100 -29803.5 4.77741
222      51.3013 1 2 100 -29803.5 4.63669
223      51.3013 1 2 100 -29803.5 4.49596
224      51.3013 1 2 100 -29803.5 4.35524
225      51.3013 1 2 100 -29803.5 4.21452
226      51.3013 1 2 100 -29803.5 4.0738
227      51.3013 1 2 100 -29803.5 3.93308
228      51.3013 1 2 100 -29803.5 3.79236
229      51.3013 1 2 100 -29803.5 3.65164
230      51.3013 1 2 100 -29803.5 3.51091
231      51.3013 1 2 100 -29803.5 3.37019
232      51.3013 1 2 100 -29803.5 3.22947
233      51.3013 1 2 100 -29803.5 3.08875
234      51.3013 1 2 100 -29803.5 2.94803
235      51.3013 1 2 100 -29803.5 2.80731
236      51.3013 1 2 100 -29803.5 2.66659
237      51.3013 1 2 100 -29803.5 2.52586
238      51.3013 1 2 100 -29803.5 2.38514
239      51.3013 1 2 100 -29803.5 2.24442
240      51.3013 1 2 100 -29803.5 2.1037
241      51.3013 1 2 100 -14901.7 0
242      51.3013 1 2 100 -14901.7 3.07123
243      51.3013 1 2 100 -14901.7 6.14246
244      51.3013 1 2 100 -14901.7 2.93051
245      51.3013 1 2 100 -14901.7 6.00174
246      51.3013 1 2 100 -14901.7 2.78979
247      51.3013 1 2 100 -14901.7 5.86102
248      51.3013 1 2 100 -14901.7 2.64907
249      51.3013 1 2 100 -14901.7 5.7203
250      51.3013 1 2 100 -14901.7 2.50835
251      51.3013 1 2 100 -14901.7 5.57958
252      51.3013 1 2 100 -14901.7 2.36762
253      51.3013 1 2 100 -14901.7 5.43886
254      51.3013 1 2 100 -14901.7 2.2269
255      51.3013 1 2 100 -14901.7 5.29813
256      51.3013 1 2 100 -14901.7 2.08618
257      51.3013 1 2 100 -14901.7 5.15741
258      51.3013 1 2 100 -14901.7 1.94546
259      51.3013 1 2 100 -14901.7 5.01669
260      51.3013 1 2 100 -14901.7 1.80474
261      51.3013 1 2 100 -14901.7 4.87597
262      51.3013 1 2 100 -14901.7 1.66402
263      51.3013 1 2 100 -14901.7 4.73525
264      51.3013 1 2 100 -14901.7 1.5233
265      51.3013 1 2 100 -14901.7 4.59453
266      51.3013 1 2 100 -14901.7 1.38257
267      51.3013 1 2 100 -14901.7 4.45381
268      51.3013 1 2 100 -14901.7 1.24185
269      51.3013 1 2 100 -14901.7 4.31308
270      51.3013 1 2 100 -14901.7 1.10113
271      51.3013 1 2 100 -14901.7 4.17236
272      51.3013 1 2 100 -14901.7 0.96041
273      51.3013 1 2 100 -14901.7 4.03164
274      51.3013 1 2 100 -14901.7 0.819688
275      51.3013 1 2 100 -14901.7 3.89092
276      51.3013 1 2 100 -14901.7 0.678967
277      51.3013 1 2 100 -14901.7 3.7502
278      51.3013 1 2 100 -14901.7 0.538245
279      51.3013 1 2 100 -14901.7 3.60948
280      51.3013 1 2 100 -14901.7 0.397524
281      51.3013 1 2 100 -14901.7 3.46876
282      51.3013 1 2 100 -14901.7 0.256802
283      51.3013 1 2 100 -14901.7 3.32803
284      51.3013 1 2 100 -14901.7 0.116081
285      51.3013 1 2 100 -14901.7 3.18731
286      51.3013 1 2 100 -14901.7 6.25854
287      51.3013 1 2 100 -14901.7 3.04659
288      51.3013 1 2 100 -14901.7 6.11782
289      51.3013 1 2 100 -14901.7 2.90587
290      51.3013 1 2 100 -14901.7 5.9771
291      51.3013 1 2 100 -14901.7 2.76515
292      51.3013 1 2 100 -14901.7 5.83638
293      51.3013 1 2 100 -14901.7 2.62443
294      51.3013 1 2 100 -14901.7 5.69566
295      51.3013 1 2 100 -14901.7 2.48371
296      51.3013 1 2 100 -14901.7 5.55494
297      51.3013 1 2 100 -14901.7 2.34298
298      51.3013 1 2 100 -14901.7 5.41422
299      51.3013 1 2 100 -14901.7 2.20226
300      51.3013 1 2 100 -14901.7 5.27349
301      51.3013 1 2 100 -14901.7 2.06154
302      51.3013 1 2 100 -14901.7 5.13277
303      51.3013 1 2 100 -14901.7 1.92082
304      51.3013 1 2 100 -14901.7 4.99205
305      51.3013 1 2 100 -14901.7 1.7801
306      51.3013 1 2 100 -14901.7 4.85133
307      51.3013 1 2 100 -14901.7 1.63938
308      51.3013 1 2 100 -14901.7 4.71061
309      51.3013 1 2 100 -14901.7 1.49865
310      51.3013 1 2 100 -14901.7 4.56989
311      51.3013 1 2 100 -14901.7 1.35793
312      51.3013 1 2 100 -14901.7 4.42917
313      51.3013 1 2 100 -14901.7 1.21721
314      51.3013 1 2 100 -14901.7 4.28844
315      51.3013 1 2 100 -14901.7 1.07649
316      51.3013 1 2 100 -14901.7 4.14772
317      51.3013 1 2 100 -14901.7 0.935769
318      51.3013 1 2 100 -14901.7 4.007
319      51.3013 1 2 100 -14901.7 0.795047
320      51.3013 1 2 100 -14901.7 3.86628
321      51.3013 1 2 100 -14901.7 0.654326
322      51.3013 1 2 100 -14901.7 3.72556
323      51.3013 1 2 100 -14901.7 0.513604
324      51.3013 1 2 100 -14901.7 3.58484
325      51.3013 1 2 100 -14901.7 0.372883
326      51.3013 1 2 100 -14901.7 3.44411
327      51.3013 1 2 100 -14901.7 0.232161
328      51.3013 1 2 100 -14901.7 3.30339
329      51.3013 1 2 100 -14901.7 0.0914399
330      51.3013 1 2 100 -14901.7 3.16267
331      51.3013 1 2 100 -14901.7 6.2339
332      51.3013 1 2 100 -14901.7 3.02195
333      51.3013 1 2 100 -14901.7 6.09318
334      51.3013 1 2 100 -14901.7 2.88123
335      51.3013 1 2 100 -14901.7 5.95246
336      51.3013 1 2 100 -14901.7 2.74051
337      51.3013 1 2 100 -14901.7 5.81174
338      51.3013 1 2 100 -14901.7 2.59979
339      51.3013 1 2 100 -14901.7 5.67102
340      51.3013 1 2 100 -14901.7 2.45906
341      51.3013 1 2 100 -14901.7 5.5303
342      51.3013 1 2 100 -14901.7 2.31834
343      51.3013 1 2 100 -14901.7 5.38957
344      51.3013 1 2 100 -14901.7 2.17762
345      51.3013 1 2 100 -14901.7 5.24885
346      51.3013 1 2 100 -14901.7 2.0369
347      51.3013 1 2 100 -14901.7 5.10813
348      51.3013 1 2 100 -14901.7 1.89618
349      51.3013 1 2 100 -14901.7 4.96741
350      51.3013 1 2 100 -14901.7 1.75546
351      51.3013 1 2 100 -14901.7 4.82669
352      51.3013 1 2 100 -14901.7 1.61474
353      51.3013 1 2 100 -14901.7 4.68597
354      51.3013 1 2 100 -14901.7 1.47401
355      51.3013 1 2 100 -14901.7 4.54525
356      51.3013 1 2 100 -14901.7 1.33329
357      51.3013 1 2 100 -14901.7 4.40452
358      51.3013 1 2 100 -14901.7 1.19257
359      51.3013 1 2 100 -14901.7 4.2638
360      51.3013 1 2 100 -14901.7 1.05185
361      51.3013 1 2 100 -5960.7 0
362      51.3013 1 2 100 -5960.7 3.74177
363      51.3013 1 2 100 -5960.7 1.20035
364      51.3013 1 2 100 -5960.7 4.94212
365      51.3013 1 2 100 -5960.7 2.4007
366      51.3013 1 2 100 -5960.7 6.14246
367      51.3013 1 2 100 -5960.7 3.60105
368      51.3013 1 2 100 -5960.7 1.05963
369      51.3013 1 2 100 -5960.7 4.80139
370      51.3013 1 2 100 -5960.7 2.25998
371      51.3013 1 2 100 -5960.7 6.00174
372      51.3013 1 2 100 -5960.7 3.46032
373      51.3013 1 2 100 -5960.7 0.918905
374      51.3013 1 2 100 -5960.7 4.66067
375      51.3013 1 2 100 -5960.7 2.11925
376      51.3013 1 2 100 -5960.7 5.86102
377      51.3013 1 2 100 -5960.7 3.3196
378      51.3013 1 2 100 -5960.7 0.778184
379      51.3013 1 2 100 -5960.7 4.51995
380      51.3013 1 2 100 -5960.7 1.97853
381      51.3013 1 2 100 -5960.7 5.7203
382      51.3013 1 2 100 -5960.7 3.17888
383      51.3013 1 2 100 -5960.7 0.637463
384      51.3013 1 2 100 -5960.7 4.37923
385      51.3013 1 2 100 -5960.7 1.83781
386      51.3013 1 2 100 -5960.7 5.57958
387      51.3013 1 2 100 -5960.7 3.03816
388      51.3013 1 2 100 -5960.7 0.496741
389      51.3013 1 2 100 -5960.7 4.23851
390      51.3013 1 2 100 -5960.7 1.69709
391      51.3013 1 2 100 -5960.7 5.43886
392      51.3013 1 2 100 -5960.7 2.89744
393      51.3013 1 2 100 -5960.7 0.35602
394      51.3013 1 2 100 -5960.7 4.09779
395      51.3013 1 2 100 -5960.7 1.55637
396      51.3013 1 2 100 -5960.7 5.29813
397      51.3013 1 2 100 -5960.7 2.75672
398      51.3013 1 2 100 -5960.7 0.215298
399      51.3013 1 2 100 -5960.7 3.95706
400      51.3013 1 2 100 -5960.7 1.41565
401      51.3013 1 2 100 -5960.7 5.15741
402      51.3013 1 2 100 -5960.7 2.616
403      51.3013 1 2 100 -5960.7 0.0745766
404      51.3013 1 2 100 -5960.7 3.81634
405      51.3013 1 2 100 -5960.7 1.27493
406      51.3013 1 2 100 -5960.7 5.01669
407      51.3013 1 2 100 -5960.7 2.47527
408      51.3013 1 2 100 -5960.7 6.21704
409      51.3013 1 2 100 -5960.7 3.67562
410      51.3013 1 2 100 -5960.7 1.1342
411      51.3013 1 2 100 -5960.7 4.87597
412      51.3013 1 2 100 -5960.7 2.33455
413      51.3013 1 2 100 -5960.7 6.07632
414      51.3013 1 2 100 -5960.7 3.5349
415      51.3013 1 2 100 -5960.7 0.993482
416      51.3013 1 2 100 -5960.7 4.73525
417      51.3013 1 2 100 -5960.7 2.19383
418      51.3013 1 2 100 -5960.7 5.9356
419      51.3013 1 2 100 -5960.7 3.39418
420      51.3013 1 2 100 -5960.7 0.852761
421      51.3013 1 2 100 -5960.7 4.59453
422      51.3013 1 2 100 -5960.7 2.05311
423      51.3013 1 2 100 -5960.7 5.79488
424      51.3013 1 2 100 -5960.7 3.25346
425      51.3013 1 2 100 -5960.7 0.712039
426      51.3013 1 2 100 -5960.7 4.45381
427      51.3013 1 2 100 -5960.7 1.91239
428      51.3013 1 2 100 -5960.7 5.65415
429      51.3013 1 2 100 -5960.7 3.11274
430      51.3013 1 2 100 -5960.7 0.571318
431      51.3013 1 2 100 -5960.7 4.31308
432      51.3013 1 2 100 -5960.7 1.77167
433      51.3013 1 2 100 -5960.7 5.51343
434      51.3013 1 2 100 -5960.7 2.97201
435      51.3013 1 2 100 -5960.7 0.430596
436      51.3013 1 2 100 -5960.7 4.17236
437      51.3013 1 2 100 -5960.7 1.63094
438      51.3013 1 2 100 -5960.7 5.37271
439      51.3013 1 2 100 -5960.7 2.83129
440      51.3013 1 2 100 -5960.7 0.289875
441      51.3013 1 2 100 -5960.7 4.03164
442      51.3013 1 2 100 -5960.7 1.49022
443      51.3013 1 2 100 -5960.7 5.23199
444      51.3013 1 2 100 -5960.7 2.69057
445      51.3013 1 2 100 -5960.7 0.149153
446      51.3013 1 2 100 -5960.7 3.89092
447      51.3013 1 2 100 -5960.7 1.3495
448      51.3013 1 2 100 -5960.7 5.09127
449      51.3013 1 2 100 -5960.7 2.54985
450      51.3013 1 2 100 -5960.7 0.00843168
451      51.3013 1 2 100 -5960.7 3.7502
452      51.3013 1 2 100 -5960.7 1.20878
453      51.3013 1 2 100 -5960.7 4.95055
454      51.3013 1 2 100 -5960.7 2.40913
455      51.3013 1 2 100 -5960.7 6.1509
456      51.3013 1 2 100 -5960.7 3.60948
457      51.3013 1 2 100 -5960.7 1.06806
458      51.3013 1 2 100 -5960.7 4.80983
459      51.3013 1 2 100 -5960.7 2.26841
460      51.3013 1 2 100 -5960.7 6.01017
461      51.3013 1 2 100 -5960.7 3.46876
462      51.3013 1 2 100 -5960.7 0.927337
463      51.3013 1 2 100 -5960.7 4.6691
464      51.3013 1 2 100 -5960.7 2.12769
465      51.3013 1 2 100 -5960.7 5.86945
466      51.3013 1 2 100 -5960.7 3.32803
467      51.3013 1 2 100 -5960.7 0.786616
468      51.3013 1 2 100 -5960.7 4.52838
469      51.3013 1 2 100 -5960.7 1.98696
470      51.3013 1 2 100 -5960.7 5.72873
471      51.3013 1 2 100 -5960.7 3.18731
472      51.3013 1 2 100 -5960.7 0.645894
473      51.3013 1 2 100 -5960.7 4.38766
474      51.3013 1 2 100 -5960.7 1.84624
475      51.3013 1 2 100 -5960.7 5.58801
476      51.3013 1 2 100 -5960.7 3.04659
477      51.3013 1 2 100 -5960.7 0.505173
478      51.3013 1 2 100 -5960.7 4.24694
479      51.3013 1 2 100 -5960.7 1.70552
480      51.3013 1 2 100 -5960.7 5.44729
481      51.3013 1 2 100 -3576.42 0
