# Pulseq sequence file
# Created by MATLAB mr toolbox

# Created for Pulseq-CEST
# https://pulseq-cest.github.io/
# Created by: Clemens Stilianu
# Created at: 25-Sep-2025 17:46:08

[VERSION]
major 1
minor 3
revision 1

[DEFINITIONS]
B0 2.89509447 
B1pa 1 
B1rms 0.986292947 
DCsat 0.909090909 
FREQ 123.2627 
M0_offset -300 
Trec 3.5 
Trec_M0 3.5 
Tsat 1.09 
n_pulses 10 
num_meas 34 
offsets_ppm -5 -4.9 -4.8 -4.7 -4.6 -4.5 -4.4 -4.3 -4.2 -4.1 -4 -3.9 -3.8 -3.7 -3.6 -3.5 -3.4 -3.3 -3.2 -3.1 -3 -2.9 -2.8 -2.7 -2.6 -2.5 -2.4 -2.3 -2.2 -2.1 -2 -1.9 -1.8 -1.7 -1.6 -1.5 -1.4 -1.3 -1.2 -1.1 -1 -0.9 -0.8 -0.7 -0.6 -0.5 -0.4 -0.3 -0.2 -0.1 0 0.1 0.2 0.3 0.4 0.5 0.6 0.7 0.8 0.9 1 1.1 1.2 1.3 1.4 1.5 1.6 1.7 1.8 1.9 2 2.1 2.2 2.3 2.4 2.5 2.6 2.7 2.8 2.9 3 3.1 3.2 3.3 3.4 3.5 3.6 3.7 3.8 3.9 4 4.1 4.2 4.3 4.4 4.5 4.6 4.7 4.8 4.9 5 
seq_id_string Gauss_minimal 
spoiling 1 
td 0.01 
tp 0.1 

# Format of blocks:
#  #  D RF  GX  GY  GZ ADC EXT
[BLOCKS]
   1  1  0   0   0   0  0  0
   2  0  1   0   0   0  0  0
   3  2  0   0   0   0  0  0
   4  0  2   0   0   0  0  0
   5  2  0   0   0   0  0  0
   6  0  3   0   0   0  0  0
   7  2  0   0   0   0  0  0
   8  0  4   0   0   0  0  0
   9  2  0   0   0   0  0  0
  10  0  5   0   0   0  0  0
  11  2  0   0   0   0  0  0
  12  0  6   0   0   0  0  0
  13  2  0   0   0   0  0  0
  14  0  7   0   0   0  0  0
  15  2  0   0   0   0  0  0
  16  0  8   0   0   0  0  0
  17  2  0   0   0   0  0  0
  18  0  9   0   0   0  0  0
  19  2  0   0   0   0  0  0
  20  0 10   0   0   0  0  0
  21  0  0   1   1   1  0  0
  22  0  0   0   0   0  1  0
  23  1  0   0   0   0  0  0
  24  0 11   0   0   0  0  0
  25  2  0   0   0   0  0  0
  26  0 12   0   0   0  0  0
  27  2  0   0   0   0  0  0
  28  0 13   0   0   0  0  0
  29  2  0   0   0   0  0  0
  30  0 14   0   0   0  0  0
  31  2  0   0   0   0  0  0
  32  0 15   0   0   0  0  0
  33  2  0   0   0   0  0  0
  34  0 16   0   0   0  0  0
  35  2  0   0   0   0  0  0
  36  0 17   0   0   0  0  0
  37  2  0   0   0   0  0  0
  38  0 18   0   0   0  0  0
  39  2  0   0   0   0  0  0
  40  0 19   0   0   0  0  0
  41  2  0   0   0   0  0  0
  42  0 20   0   0   0  0  0
  43  0  0   1   1   1  0  0
  44  0  0   0   0   0  1  0
  45  1  0   0   0   0  0  0
  46  0 21   0   0   0  0  0
  47  2  0   0   0   0  0  0
  48  0 22   0   0   0  0  0
  49  2  0   0   0   0  0  0
  50  0 23   0   0   0  0  0
  51  2  0   0   0   0  0  0
  52  0 24   0   0   0  0  0
  53  2  0   0   0   0  0  0
  54  0 25   0   0   0  0  0
  55  2  0   0   0   0  0  0
  56  0 26   0   0   0  0  0
  57  2  0   0   0   0  0  0
  58  0 27   0   0   0  0  0
  59  2  0   0   0   0  0  0
  60  0 28   0   0   0  0  0
  61  2  0   0   0   0  0  0
  62  0 29   0   0   0  0  0
  63  2  0   0   0   0  0  0
  64  0 30   0   0   0  0  0
  65  0  0   1   1   1  0  0
  66  0  0   0   0   0  1  0
  67  1  0   0   0   0  0  0
  68  0 31   0   0   0  0  0
  69  2  0   0   0   0  0  0
  70  0 32   0   0   0  0  0
  71  2  0   0   0   0  0  0
  72  0 33   0   0   0  0  0
  73  2  0   0   0   0  0  0
  74  0 34   0   0   0  0  0
  75  2  0   0   0   0  0  0
  76  0 35   0   0   0  0  0
  77  2  0   0   0   0  0  0
  78  0 36   0   0   0  0  0
  79  2  0   0   0   0  0  0
  80  0 37   0   0   0  0  0
  81  2  0   0   0   0  0  0
  82  0 38   0   0   0  0  0
  83  2  0   0   0   0  0  0
  84  0 39   0   0   0  0  0
  85  2  0   0   0   0  0  0
  86  0 40   0   0   0  0  0
  87  0  0   1   1   1  0  0
  88  0  0   0   0   0  1  0
  89  1  0   0   0   0  0  0
  90  0 41   0   0   0  0  0
  91  2  0   0   0   0  0  0
  92  0 42   0   0   0  0  0
  93  2  0   0   0   0  0  0
  94  0 43   0   0   0  0  0
  95  2  0   0   0   0  0  0
  96  0 44   0   0   0  0  0
  97  2  0   0   0   0  0  0
  98  0 45   0   0   0  0  0
  99  2  0   0   0   0  0  0
 100  0 46   0   0   0  0  0
 101  2  0   0   0   0  0  0
 102  0 47   0   0   0  0  0
 103  2  0   0   0   0  0  0
 104  0 48   0   0   0  0  0
 105  2  0   0   0   0  0  0
 106  0 49   0   0   0  0  0
 107  2  0   0   0   0  0  0
 108  0 50   0   0   0  0  0
 109  0  0   1   1   1  0  0
 110  0  0   0   0   0  1  0
 111  1  0   0   0   0  0  0
 112  0 51   0   0   0  0  0
 113  2  0   0   0   0  0  0
 114  0 52   0   0   0  0  0
 115  2  0   0   0   0  0  0
 116  0 53   0   0   0  0  0
 117  2  0   0   0   0  0  0
 118  0 54   0   0   0  0  0
 119  2  0   0   0   0  0  0
 120  0 55   0   0   0  0  0
 121  2  0   0   0   0  0  0
 122  0 56   0   0   0  0  0
 123  2  0   0   0   0  0  0
 124  0 57   0   0   0  0  0
 125  2  0   0   0   0  0  0
 126  0 58   0   0   0  0  0
 127  2  0   0   0   0  0  0
 128  0 59   0   0   0  0  0
 129  2  0   0   0   0  0  0
 130  0 60   0   0   0  0  0
 131  0  0   1   1   1  0  0
 132  0  0   0   0   0  1  0
 133  1  0   0   0   0  0  0
 134  0 61   0   0   0  0  0
 135  2  0   0   0   0  0  0
 136  0 62   0   0   0  0  0
 137  2  0   0   0   0  0  0
 138  0 63   0   0   0  0  0
 139  2  0   0   0   0  0  0
 140  0 64   0   0   0  0  0
 141  2  0   0   0   0  0  0
 142  0 65   0   0   0  0  0
 143  2  0   0   0   0  0  0
 144  0 66   0   0   0  0  0
 145  2  0   0   0   0  0  0
 146  0 67   0   0   0  0  0
 147  2  0   0   0   0  0  0
 148  0 68   0   0   0  0  0
 149  2  0   0   0   0  0  0
 150  0 69   0   0   0  0  0
 151  2  0   0   0   0  0  0
 152  0 70   0   0   0  0  0
 153  0  0   1   1   1  0  0
 154  0  0   0   0   0  1  0
 155  1  0   0   0   0  0  0
 156  0 71   0   0   0  0  0
 157  2  0   0   0   0  0  0
 158  0 72   0   0   0  0  0
 159  2  0   0   0   0  0  0
 160  0 73   0   0   0  0  0
 161  2  0   0   0   0  0  0
 162  0 74   0   0   0  0  0
 163  2  0   0   0   0  0  0
 164  0 75   0   0   0  0  0
 165  2  0   0   0   0  0  0
 166  0 76   0   0   0  0  0
 167  2  0   0   0   0  0  0
 168  0 77   0   0   0  0  0
 169  2  0   0   0   0  0  0
 170  0 78   0   0   0  0  0
 171  2  0   0   0   0  0  0
 172  0 79   0   0   0  0  0
 173  2  0   0   0   0  0  0
 174  0 80   0   0   0  0  0
 175  0  0   1   1   1  0  0
 176  0  0   0   0   0  1  0
 177  1  0   0   0   0  0  0
 178  0 81   0   0   0  0  0
 179  2  0   0   0   0  0  0
 180  0 82   0   0   0  0  0
 181  2  0   0   0   0  0  0
 182  0 83   0   0   0  0  0
 183  2  0   0   0   0  0  0
 184  0 84   0   0   0  0  0
 185  2  0   0   0   0  0  0
 186  0 85   0   0   0  0  0
 187  2  0   0   0   0  0  0
 188  0 86   0   0   0  0  0
 189  2  0   0   0   0  0  0
 190  0 87   0   0   0  0  0
 191  2  0   0   0   0  0  0
 192  0 88   0   0   0  0  0
 193  2  0   0   0   0  0  0
 194  0 89   0   0   0  0  0
 195  2  0   0   0   0  0  0
 196  0 90   0   0   0  0  0
 197  0  0   1   1   1  0  0
 198  0  0   0   0   0  1  0
 199  1  0   0   0   0  0  0
 200  0 91   0   0   0  0  0
 201  2  0   0   0   0  0  0
 202  0 92   0   0   0  0  0
 203  2  0   0   0   0  0  0
 204  0 93   0   0   0  0  0
 205  2  0   0   0   0  0  0
 206  0 94   0   0   0  0  0
 207  2  0   0   0   0  0  0
 208  0 95   0   0   0  0  0
 209  2  0   0   0   0  0  0
 210  0 96   0   0   0  0  0
 211  2  0   0   0   0  0  0
 212  0 97   0   0   0  0  0
 213  2  0   0   0   0  0  0
 214  0 98   0   0   0  0  0
 215  2  0   0   0   0  0  0
 216  0 99   0   0   0  0  0
 217  2  0   0   0   0  0  0
 218  0 100   0   0   0  0  0
 219  0  0   1   1   1  0  0
 220  0  0   0   0   0  1  0
 221  1  0   0   0   0  0  0
 222  0 101   0   0   0  0  0
 223  2  0   0   0   0  0  0
 224  0 102   0   0   0  0  0
 225  2  0   0   0   0  0  0
 226  0 103   0   0   0  0  0
 227  2  0   0   0   0  0  0
 228  0 104   0   0   0  0  0
 229  2  0   0   0   0  0  0
 230  0 105   0   0   0  0  0
 231  2  0   0   0   0  0  0
 232  0 106   0   0   0  0  0
 233  2  0   0   0   0  0  0
 234  0 107   0   0   0  0  0
 235  2  0   0   0   0  0  0
 236  0 108   0   0   0  0  0
 237  2  0   0   0   0  0  0
 238  0 109   0   0   0  0  0
 239  2  0   0   0   0  0  0
 240  0 110   0   0   0  0  0
 241  0  0   1   1   1  0  0
 242  0  0   0   0   0  1  0
 243  1  0   0   0   0  0  0
 244  0 111   0   0   0  0  0
 245  2  0   0   0   0  0  0
 246  0 112   0   0   0  0  0
 247  2  0   0   0   0  0  0
 248  0 113   0   0   0  0  0
 249  2  0   0   0   0  0  0
 250  0 114   0   0   0  0  0
 251  2  0   0   0   0  0  0
 252  0 115   0   0   0  0  0
 253  2  0   0   0   0  0  0
 254  0 116   0   0   0  0  0
 255  2  0   0   0   0  0  0
 256  0 117   0   0   0  0  0
 257  2  0   0   0   0  0  0
 258  0 118   0   0   0  0  0
 259  2  0   0   0   0  0  0
 260  0 119   0   0   0  0  0
 261  2  0   0   0   0  0  0
 262  0 120   0   0   0  0  0
 263  0  0   1   1   1  0  0
 264  0  0   0   0   0  1  0
 265  1  0   0   0   0  0  0
 266  0 121   0   0   0  0  0
 267  2  0   0   0   0  0  0
 268  0 122   0   0   0  0  0
 269  2  0   0   0   0  0  0
 270  0 123   0   0   0  0  0
 271  2  0   0   0   0  0  0
 272  0 124   0   0   0  0  0
 273  2  0   0   0   0  0  0
 274  0 125   0   0   0  0  0
 275  2  0   0   0   0  0  0
 276  0 126   0   0   0  0  0
 277  2  0   0   0   0  0  0
 278  0 127   0   0   0  0  0
 279  2  0   0   0   0  0  0
 280  0 128   0   0   0  0  0
 281  2  0   0   0   0  0  0
 282  0 129   0   0   0  0  0
 283  2  0   0   0   0  0  0
 284  0 130   0   0   0  0  0
 285  0  0   1   1   1  0  0
 286  0  0   0   0   0  1  0
 287  1  0   0   0   0  0  0
 288  0 131   0   0   0  0  0
 289  2  0   0   0   0  0  0
 290  0 132   0   0   0  0  0
 291  2  0   0   0   0  0  0
 292  0 133   0   0   0  0  0
 293  2  0   0   0   0  0  0
 294  0 134   0   0   0  0  0
 295  2  0   0   0   0  0  0
 296  0 135   0   0   0  0  0
 297  2  0   0   0   0  0  0
 298  0 136   0   0   0  0  0
 299  2  0   0   0   0  0  0
 300  0 137   0   0   0  0  0
 301  2  0   0   0   0  0  0
 302  0 138   0   0   0  0  0
 303  2  0   0   0   0  0  0
 304  0 139   0   0   0  0  0
 305  2  0   0   0   0  0  0
 306  0 140   0   0   0  0  0
 307  0  0   1   1   1  0  0
 308  0  0   0   0   0  1  0
 309  1  0   0   0   0  0  0
 310  0 141   0   0   0  0  0
[RF]
1      69.7117 1 2 100 -616.313 0
2      69.7117 1 2 100 -616.313 2.32017
3      69.7117 1 2 100 -616.313 4.64034
4      69.7117 1 2 100 -616.313 0.677321
5      69.7117 1 2 100 -616.313 2.99749
6      69.7117 1 2 100 -616.313 5.31766
7      69.7117 1 2 100 -616.313 1.35464
8      69.7117 1 2 100 -616.313 3.67481
9      69.7117 1 2 100 -616.313 5.99498
10      69.7117 1 2 100 -616.313 2.03196
11      69.7117 1 2 100 -603.987 0
12      69.7117 1 2 100 -603.987 3.78173
13      69.7117 1 2 100 -603.987 1.28027
14      69.7117 1 2 100 -603.987 5.062
15      69.7117 1 2 100 -603.987 2.56055
16      69.7117 1 2 100 -603.987 0.059093
17      69.7117 1 2 100 -603.987 3.84082
18      69.7117 1 2 100 -603.987 1.33937
19      69.7117 1 2 100 -603.987 5.1211
20      69.7117 1 2 100 -603.987 2.61964
21      69.7117 1 2 100 -591.661 0
22      69.7117 1 2 100 -591.661 5.24329
23      69.7117 1 2 100 -591.661 4.2034
24      69.7117 1 2 100 -591.661 3.1635
25      69.7117 1 2 100 -591.661 2.12361
26      69.7117 1 2 100 -591.661 1.08371
27      69.7117 1 2 100 -591.661 0.0438187
28      69.7117 1 2 100 -591.661 5.28711
29      69.7117 1 2 100 -591.661 4.24722
30      69.7117 1 2 100 -591.661 3.20732
31      69.7117 1 2 100 -579.335 0
32      69.7117 1 2 100 -579.335 0.421667
33      69.7117 1 2 100 -579.335 0.843333
34      69.7117 1 2 100 -579.335 1.265
35      69.7117 1 2 100 -579.335 1.68667
36      69.7117 1 2 100 -579.335 2.10833
37      69.7117 1 2 100 -579.335 2.53
38      69.7117 1 2 100 -579.335 2.95167
39      69.7117 1 2 100 -579.335 3.37333
40      69.7117 1 2 100 -579.335 3.795
41      69.7117 1 2 100 -567.008 0
42      69.7117 1 2 100 -567.008 1.88323
43      69.7117 1 2 100 -567.008 3.76646
44      69.7117 1 2 100 -567.008 5.64968
45      69.7117 1 2 100 -567.008 1.24973
46      69.7117 1 2 100 -567.008 3.13295
47      69.7117 1 2 100 -567.008 5.01618
48      69.7117 1 2 100 -567.008 0.616224
49      69.7117 1 2 100 -567.008 2.49945
50      69.7117 1 2 100 -567.008 4.38268
51      69.7117 1 2 100 -554.682 0
52      69.7117 1 2 100 -554.682 3.34479
53      69.7117 1 2 100 -554.682 0.406392
54      69.7117 1 2 100 -554.682 3.75118
55      69.7117 1 2 100 -554.682 0.812785
56      69.7117 1 2 100 -554.682 4.15757
57      69.7117 1 2 100 -554.682 1.21918
58      69.7117 1 2 100 -554.682 4.56397
59      69.7117 1 2 100 -554.682 1.62557
60      69.7117 1 2 100 -554.682 4.97036
61      69.7117 1 2 100 -542.356 0
62      69.7117 1 2 100 -542.356 4.80635
63      69.7117 1 2 100 -542.356 3.32951
64      69.7117 1 2 100 -542.356 1.85268
65      69.7117 1 2 100 -542.356 0.375844
66      69.7117 1 2 100 -542.356 5.18219
67      69.7117 1 2 100 -542.356 3.70536
68      69.7117 1 2 100 -542.356 2.22852
69      69.7117 1 2 100 -542.356 0.751688
70      69.7117 1 2 100 -542.356 5.55804
71      69.7117 1 2 100 -530.03 0
72      69.7117 1 2 100 -530.03 6.26791
73      69.7117 1 2 100 -530.03 6.25264
74      69.7117 1 2 100 -530.03 6.23736
75      69.7117 1 2 100 -530.03 6.22209
76      69.7117 1 2 100 -530.03 6.20681
77      69.7117 1 2 100 -530.03 6.19154
78      69.7117 1 2 100 -530.03 6.17627
79      69.7117 1 2 100 -530.03 6.16099
80      69.7117 1 2 100 -530.03 6.14572
81      69.7117 1 2 100 -517.703 0
82      69.7117 1 2 100 -517.703 1.44629
83      69.7117 1 2 100 -517.703 2.89257
84      69.7117 1 2 100 -517.703 4.33886
85      69.7117 1 2 100 -517.703 5.78515
86      69.7117 1 2 100 -517.703 0.948249
87      69.7117 1 2 100 -517.703 2.39454
88      69.7117 1 2 100 -517.703 3.84082
89      69.7117 1 2 100 -517.703 5.28711
90      69.7117 1 2 100 -517.703 0.450211
91      69.7117 1 2 100 -505.377 0
92      69.7117 1 2 100 -505.377 2.90785
93      69.7117 1 2 100 -505.377 5.8157
94      69.7117 1 2 100 -505.377 2.44036
95      69.7117 1 2 100 -505.377 5.34821
96      69.7117 1 2 100 -505.377 1.97287
97      69.7117 1 2 100 -505.377 4.88072
98      69.7117 1 2 100 -505.377 1.50538
99      69.7117 1 2 100 -505.377 4.41323
100      69.7117 1 2 100 -505.377 1.03789
101      69.7117 1 2 100 -493.051 0
102      69.7117 1 2 100 -493.051 4.36941
103      69.7117 1 2 100 -493.051 2.45563
104      69.7117 1 2 100 -493.051 0.541857
105      69.7117 1 2 100 -493.051 4.91127
106      69.7117 1 2 100 -493.051 2.99749
107      69.7117 1 2 100 -493.051 1.08371
108      69.7117 1 2 100 -493.051 5.45312
109      69.7117 1 2 100 -493.051 3.53935
110      69.7117 1 2 100 -493.051 1.62557
111      69.7117 1 2 100 -480.725 0
112      69.7117 1 2 100 -480.725 5.83097
113      69.7117 1 2 100 -480.725 5.37876
114      69.7117 1 2 100 -480.725 4.92654
115      69.7117 1 2 100 -480.725 4.47432
116      69.7117 1 2 100 -480.725 4.02211
117      69.7117 1 2 100 -480.725 3.56989
118      69.7117 1 2 100 -480.725 3.11768
119      69.7117 1 2 100 -480.725 2.66546
120      69.7117 1 2 100 -480.725 2.21325
121      69.7117 1 2 100 -468.398 0
122      69.7117 1 2 100 -468.398 1.00935
123      69.7117 1 2 100 -468.398 2.01869
124      69.7117 1 2 100 -468.398 3.02804
125      69.7117 1 2 100 -468.398 4.03738
126      69.7117 1 2 100 -468.398 5.04673
127      69.7117 1 2 100 -468.398 6.05608
128      69.7117 1 2 100 -468.398 0.782236
129      69.7117 1 2 100 -468.398 1.79158
130      69.7117 1 2 100 -468.398 2.80093
131      69.7117 1 2 100 -456.072 0
132      69.7117 1 2 100 -456.072 2.47091
133      69.7117 1 2 100 -456.072 4.94181
134      69.7117 1 2 100 -456.072 1.12954
135      69.7117 1 2 100 -456.072 3.60044
136      69.7117 1 2 100 -456.072 6.07135
137      69.7117 1 2 100 -456.072 2.25907
138      69.7117 1 2 100 -456.072 4.72998
139      69.7117 1 2 100 -456.072 0.917701
140      69.7117 1 2 100 -456.072 3.38861
141      69.7117 1 2 100 -443.746 0
142      69.7117 1 2 100 -443.746 3.93247
143      69.7117 1 2 100 -443.746 1.58175
144      69.7117 1 2 100 -443.746 5.51422
145      69.7117 1 2 100 -443.746 3.1635
146      69.7117 1 2 100 -443.746 0.812785
147      69.7117 1 2 100 -443.746 4.74525
148      69.7117 1 2 100 -443.746 2.39454
149      69.7117 1 2 100 -443.746 0.0438187
150      69.7117 1 2 100 -443.746 3.97629
151      69.7117 1 2 100 -431.419 0
152      69.7117 1 2 100 -431.419 5.39403
153      69.7117 1 2 100 -431.419 4.50487
154      69.7117 1 2 100 -431.419 3.61572
155      69.7117 1 2 100 -431.419 2.72656
156      69.7117 1 2 100 -431.419 1.83741
157      69.7117 1 2 100 -431.419 0.948249
158      69.7117 1 2 100 -431.419 0.059093
159      69.7117 1 2 100 -431.419 5.45312
160      69.7117 1 2 100 -431.419 4.56397
161      69.7117 1 2 100 -419.093 0
162      69.7117 1 2 100 -419.093 0.572405
163      69.7117 1 2 100 -419.093 1.14481
164      69.7117 1 2 100 -419.093 1.71722
165      69.7117 1 2 100 -419.093 2.28962
166      69.7117 1 2 100 -419.093 2.86203
167      69.7117 1 2 100 -419.093 3.43443
168      69.7117 1 2 100 -419.093 4.00684
169      69.7117 1 2 100 -419.093 4.57924
170      69.7117 1 2 100 -419.093 5.15165
171      69.7117 1 2 100 -406.767 0
172      69.7117 1 2 100 -406.767 2.03397
173      69.7117 1 2 100 -406.767 4.06793
174      69.7117 1 2 100 -406.767 6.1019
175      69.7117 1 2 100 -406.767 1.85268
176      69.7117 1 2 100 -406.767 3.88665
177      69.7117 1 2 100 -406.767 5.92061
178      69.7117 1 2 100 -406.767 1.67139
179      69.7117 1 2 100 -406.767 3.70536
180      69.7117 1 2 100 -406.767 5.73932
181      69.7117 1 2 100 -394.441 0
182      69.7117 1 2 100 -394.441 3.49553
183      69.7117 1 2 100 -394.441 0.707869
184      69.7117 1 2 100 -394.441 4.2034
185      69.7117 1 2 100 -394.441 1.41574
186      69.7117 1 2 100 -394.441 4.91127
187      69.7117 1 2 100 -394.441 2.12361
188      69.7117 1 2 100 -394.441 5.61913
189      69.7117 1 2 100 -394.441 2.83148
190      69.7117 1 2 100 -394.441 0.0438187
191      69.7117 1 2 100 -382.114 0
192      69.7117 1 2 100 -382.114 4.95709
193      69.7117 1 2 100 -382.114 3.63099
194      69.7117 1 2 100 -382.114 2.30489
195      69.7117 1 2 100 -382.114 0.978797
196      69.7117 1 2 100 -382.114 5.93589
197      69.7117 1 2 100 -382.114 4.60979
198      69.7117 1 2 100 -382.114 3.28369
199      69.7117 1 2 100 -382.114 1.95759
200      69.7117 1 2 100 -382.114 0.631498
201      69.7117 1 2 100 -369.788 0
202      69.7117 1 2 100 -369.788 0.135464
203      69.7117 1 2 100 -369.788 0.270928
204      69.7117 1 2 100 -369.788 0.406392
205      69.7117 1 2 100 -369.788 0.541857
206      69.7117 1 2 100 -369.788 0.677321
207      69.7117 1 2 100 -369.788 0.812785
208      69.7117 1 2 100 -369.788 0.948249
209      69.7117 1 2 100 -369.788 1.08371
210      69.7117 1 2 100 -369.788 1.21918
211      69.7117 1 2 100 -357.462 0
212      69.7117 1 2 100 -357.462 1.59703
213      69.7117 1 2 100 -357.462 3.19405
214      69.7117 1 2 100 -357.462 4.79108
215      69.7117 1 2 100 -357.462 0.104916
216      69.7117 1 2 100 -357.462 1.70194
217      69.7117 1 2 100 -357.462 3.29897
218      69.7117 1 2 100 -357.462 4.89599
219      69.7117 1 2 100 -357.462 0.209831
220      69.7117 1 2 100 -357.462 1.80686
221      69.7117 1 2 100 -345.136 0
222      69.7117 1 2 100 -345.136 3.05859
223      69.7117 1 2 100 -345.136 6.11717
224      69.7117 1 2 100 -345.136 2.89257
225      69.7117 1 2 100 -345.136 5.95116
226      69.7117 1 2 100 -345.136 2.72656
227      69.7117 1 2 100 -345.136 5.78515
228      69.7117 1 2 100 -345.136 2.56055
229      69.7117 1 2 100 -345.136 5.61913
230      69.7117 1 2 100 -345.136 2.39454
231      69.7117 1 2 100 -332.809 0
232      69.7117 1 2 100 -332.809 4.52015
233      69.7117 1 2 100 -332.809 2.75711
234      69.7117 1 2 100 -332.809 0.994072
235      69.7117 1 2 100 -332.809 5.51422
236      69.7117 1 2 100 -332.809 3.75118
237      69.7117 1 2 100 -332.809 1.98814
238      69.7117 1 2 100 -332.809 0.225106
239      69.7117 1 2 100 -332.809 4.74525
240      69.7117 1 2 100 -332.809 2.98222
241      69.7117 1 2 100 -320.483 0
242      69.7117 1 2 100 -320.483 5.98171
243      69.7117 1 2 100 -320.483 5.68023
244      69.7117 1 2 100 -320.483 5.37876
245      69.7117 1 2 100 -320.483 5.07728
246      69.7117 1 2 100 -320.483 4.7758
247      69.7117 1 2 100 -320.483 4.47432
248      69.7117 1 2 100 -320.483 4.17285
249      69.7117 1 2 100 -320.483 3.87137
250      69.7117 1 2 100 -320.483 3.56989
251      69.7117 1 2 100 -308.157 0
252      69.7117 1 2 100 -308.157 1.16008
253      69.7117 1 2 100 -308.157 2.32017
254      69.7117 1 2 100 -308.157 3.48025
255      69.7117 1 2 100 -308.157 4.64034
256      69.7117 1 2 100 -308.157 5.80042
257      69.7117 1 2 100 -308.157 0.677321
258      69.7117 1 2 100 -308.157 1.83741
259      69.7117 1 2 100 -308.157 2.99749
260      69.7117 1 2 100 -308.157 4.15757
261      69.7117 1 2 100 -295.83 0
262      69.7117 1 2 100 -295.83 2.62165
263      69.7117 1 2 100 -295.83 5.24329
264      69.7117 1 2 100 -295.83 1.58175
265      69.7117 1 2 100 -295.83 4.2034
266      69.7117 1 2 100 -295.83 0.541857
267      69.7117 1 2 100 -295.83 3.1635
268      69.7117 1 2 100 -295.83 5.78515
269      69.7117 1 2 100 -295.83 2.12361
270      69.7117 1 2 100 -295.83 4.74525
271      69.7117 1 2 100 -283.504 0
272      69.7117 1 2 100 -283.504 4.08321
273      69.7117 1 2 100 -283.504 1.88323
274      69.7117 1 2 100 -283.504 5.96643
275      69.7117 1 2 100 -283.504 3.76646
276      69.7117 1 2 100 -283.504 1.56648
277      69.7117 1 2 100 -283.504 5.64968
278      69.7117 1 2 100 -283.504 3.4497
279      69.7117 1 2 100 -283.504 1.24973
280      69.7117 1 2 100 -283.504 5.33293
281      69.7117 1 2 100 -271.178 0
282      69.7117 1 2 100 -271.178 5.54477
283      69.7117 1 2 100 -271.178 4.80635
284      69.7117 1 2 100 -271.178 4.06793
285      69.7117 1 2 100 -271.178 3.32951
286      69.7117 1 2 100 -271.178 2.5911
287      69.7117 1 2 100 -271.178 1.85268
288      69.7117 1 2 100 -271.178 1.11426
289      69.7117 1 2 100 -271.178 0.375844
290      69.7117 1 2 100 -271.178 5.92061
291      69.7117 1 2 100 -258.852 0
292      69.7117 1 2 100 -258.852 0.723143
293      69.7117 1 2 100 -258.852 1.44629
294      69.7117 1 2 100 -258.852 2.16943
295      69.7117 1 2 100 -258.852 2.89257
296      69.7117 1 2 100 -258.852 3.61572
297      69.7117 1 2 100 -258.852 4.33886
298      69.7117 1 2 100 -258.852 5.062
299      69.7117 1 2 100 -258.852 5.78515
300      69.7117 1 2 100 -258.852 0.225106
301      69.7117 1 2 100 -246.525 0
302      69.7117 1 2 100 -246.525 2.1847
303      69.7117 1 2 100 -246.525 4.36941
304      69.7117 1 2 100 -246.525 0.270928
305      69.7117 1 2 100 -246.525 2.45563
306      69.7117 1 2 100 -246.525 4.64034
307      69.7117 1 2 100 -246.525 0.541857
308      69.7117 1 2 100 -246.525 2.72656
309      69.7117 1 2 100 -246.525 4.91127
310      69.7117 1 2 100 -246.525 0.812785
311      69.7117 1 2 100 -234.199 0
312      69.7117 1 2 100 -234.199 3.64627
313      69.7117 1 2 100 -234.199 1.00935
314      69.7117 1 2 100 -234.199 4.65561
315      69.7117 1 2 100 -234.199 2.01869
316      69.7117 1 2 100 -234.199 5.66496
317      69.7117 1 2 100 -234.199 3.02804
318      69.7117 1 2 100 -234.199 0.391118
319      69.7117 1 2 100 -234.199 4.03738
320      69.7117 1 2 100 -234.199 1.40046
321      69.7117 1 2 100 -221.873 0
322      69.7117 1 2 100 -221.873 5.10783
323      69.7117 1 2 100 -221.873 3.93247
324      69.7117 1 2 100 -221.873 2.75711
325      69.7117 1 2 100 -221.873 1.58175
326      69.7117 1 2 100 -221.873 0.406392
327      69.7117 1 2 100 -221.873 5.51422
328      69.7117 1 2 100 -221.873 4.33886
329      69.7117 1 2 100 -221.873 3.1635
330      69.7117 1 2 100 -221.873 1.98814
331      69.7117 1 2 100 -209.547 0
332      69.7117 1 2 100 -209.547 0.286203
333      69.7117 1 2 100 -209.547 0.572405
334      69.7117 1 2 100 -209.547 0.858608
335      69.7117 1 2 100 -209.547 1.14481
336      69.7117 1 2 100 -209.547 1.43101
337      69.7117 1 2 100 -209.547 1.71722
338      69.7117 1 2 100 -209.547 2.00342
339      69.7117 1 2 100 -209.547 2.28962
340      69.7117 1 2 100 -209.547 2.57582
341      69.7117 1 2 100 -197.22 0
342      69.7117 1 2 100 -197.22 1.74776
343      69.7117 1 2 100 -197.22 3.49553
344      69.7117 1 2 100 -197.22 5.24329
345      69.7117 1 2 100 -197.22 0.707869
346      69.7117 1 2 100 -197.22 2.45563
347      69.7117 1 2 100 -197.22 4.2034
348      69.7117 1 2 100 -197.22 5.95116
349      69.7117 1 2 100 -197.22 1.41574
350      69.7117 1 2 100 -197.22 3.1635
351      69.7117 1 2 100 -184.894 0
352      69.7117 1 2 100 -184.894 3.20932
353      69.7117 1 2 100 -184.894 0.135464
354      69.7117 1 2 100 -184.894 3.34479
355      69.7117 1 2 100 -184.894 0.270928
356      69.7117 1 2 100 -184.894 3.48025
357      69.7117 1 2 100 -184.894 0.406392
358      69.7117 1 2 100 -184.894 3.61572
359      69.7117 1 2 100 -184.894 0.541857
360      69.7117 1 2 100 -184.894 3.75118
361      69.7117 1 2 100 -172.568 0
362      69.7117 1 2 100 -172.568 4.67089
363      69.7117 1 2 100 -172.568 3.05859
364      69.7117 1 2 100 -172.568 1.44629
365      69.7117 1 2 100 -172.568 6.11717
366      69.7117 1 2 100 -172.568 4.50487
367      69.7117 1 2 100 -172.568 2.89257
368      69.7117 1 2 100 -172.568 1.28027
369      69.7117 1 2 100 -172.568 5.95116
370      69.7117 1 2 100 -172.568 4.33886
371      69.7117 1 2 100 -160.242 0
372      69.7117 1 2 100 -160.242 6.13245
373      69.7117 1 2 100 -160.242 5.98171
374      69.7117 1 2 100 -160.242 5.83097
375      69.7117 1 2 100 -160.242 5.68023
376      69.7117 1 2 100 -160.242 5.52949
377      69.7117 1 2 100 -160.242 5.37876
378      69.7117 1 2 100 -160.242 5.22802
379      69.7117 1 2 100 -160.242 5.07728
380      69.7117 1 2 100 -160.242 4.92654
381      69.7117 1 2 100 -147.915 0
382      69.7117 1 2 100 -147.915 1.31082
383      69.7117 1 2 100 -147.915 2.62165
384      69.7117 1 2 100 -147.915 3.93247
385      69.7117 1 2 100 -147.915 5.24329
386      69.7117 1 2 100 -147.915 0.270928
387      69.7117 1 2 100 -147.915 1.58175
388      69.7117 1 2 100 -147.915 2.89257
389      69.7117 1 2 100 -147.915 4.2034
390      69.7117 1 2 100 -147.915 5.51422
391      69.7117 1 2 100 -135.589 0
392      69.7117 1 2 100 -135.589 2.77238
393      69.7117 1 2 100 -135.589 5.54477
394      69.7117 1 2 100 -135.589 2.03397
395      69.7117 1 2 100 -135.589 4.80635
396      69.7117 1 2 100 -135.589 1.29555
397      69.7117 1 2 100 -135.589 4.06793
398      69.7117 1 2 100 -135.589 0.557131
399      69.7117 1 2 100 -135.589 3.32951
400      69.7117 1 2 100 -135.589 6.1019
401      69.7117 1 2 100 -123.263 0
402      69.7117 1 2 100 -123.263 4.23394
403      69.7117 1 2 100 -123.263 2.1847
404      69.7117 1 2 100 -123.263 0.135464
405      69.7117 1 2 100 -123.263 4.36941
406      69.7117 1 2 100 -123.263 2.32017
407      69.7117 1 2 100 -123.263 0.270928
408      69.7117 1 2 100 -123.263 4.50487
409      69.7117 1 2 100 -123.263 2.45563
410      69.7117 1 2 100 -123.263 0.406392
411      69.7117 1 2 100 -110.936 0
412      69.7117 1 2 100 -110.936 5.69551
413      69.7117 1 2 100 -110.936 5.10783
414      69.7117 1 2 100 -110.936 4.52015
415      69.7117 1 2 100 -110.936 3.93247
416      69.7117 1 2 100 -110.936 3.34479
417      69.7117 1 2 100 -110.936 2.75711
418      69.7117 1 2 100 -110.936 2.16943
419      69.7117 1 2 100 -110.936 1.58175
420      69.7117 1 2 100 -110.936 0.994072
421      69.7117 1 2 100 -98.6102 0
422      69.7117 1 2 100 -98.6102 0.873882
423      69.7117 1 2 100 -98.6102 1.74776
424      69.7117 1 2 100 -98.6102 2.62165
425      69.7117 1 2 100 -98.6102 3.49553
426      69.7117 1 2 100 -98.6102 4.36941
427      69.7117 1 2 100 -98.6102 5.24329
428      69.7117 1 2 100 -98.6102 6.11717
429      69.7117 1 2 100 -98.6102 0.707869
430      69.7117 1 2 100 -98.6102 1.58175
431      69.7117 1 2 100 -86.2839 0
432      69.7117 1 2 100 -86.2839 2.33544
433      69.7117 1 2 100 -86.2839 4.67089
434      69.7117 1 2 100 -86.2839 0.723143
435      69.7117 1 2 100 -86.2839 3.05859
436      69.7117 1 2 100 -86.2839 5.39403
437      69.7117 1 2 100 -86.2839 1.44629
438      69.7117 1 2 100 -86.2839 3.78173
439      69.7117 1 2 100 -86.2839 6.11717
440      69.7117 1 2 100 -86.2839 2.16943
441      69.7117 1 2 100 -73.9576 0
442      69.7117 1 2 100 -73.9576 3.797
443      69.7117 1 2 100 -73.9576 1.31082
444      69.7117 1 2 100 -73.9576 5.10783
445      69.7117 1 2 100 -73.9576 2.62165
446      69.7117 1 2 100 -73.9576 0.135464
447      69.7117 1 2 100 -73.9576 3.93247
448      69.7117 1 2 100 -73.9576 1.44629
449      69.7117 1 2 100 -73.9576 5.24329
450      69.7117 1 2 100 -73.9576 2.75711
451      69.7117 1 2 100 -61.6313 0
452      69.7117 1 2 100 -61.6313 5.25857
453      69.7117 1 2 100 -61.6313 4.23394
454      69.7117 1 2 100 -61.6313 3.20932
455      69.7117 1 2 100 -61.6313 2.1847
456      69.7117 1 2 100 -61.6313 1.16008
457      69.7117 1 2 100 -61.6313 0.135464
458      69.7117 1 2 100 -61.6313 5.39403
459      69.7117 1 2 100 -61.6313 4.36941
460      69.7117 1 2 100 -61.6313 3.34479
461      69.7117 1 2 100 -49.3051 0
462      69.7117 1 2 100 -49.3051 0.436941
463      69.7117 1 2 100 -49.3051 0.873882
464      69.7117 1 2 100 -49.3051 1.31082
465      69.7117 1 2 100 -49.3051 1.74776
466      69.7117 1 2 100 -49.3051 2.1847
467      69.7117 1 2 100 -49.3051 2.62165
468      69.7117 1 2 100 -49.3051 3.05859
469      69.7117 1 2 100 -49.3051 3.49553
470      69.7117 1 2 100 -49.3051 3.93247
471      69.7117 1 2 100 -36.9788 0
472      69.7117 1 2 100 -36.9788 1.8985
473      69.7117 1 2 100 -36.9788 3.797
474      69.7117 1 2 100 -36.9788 5.69551
475      69.7117 1 2 100 -36.9788 1.31082
476      69.7117 1 2 100 -36.9788 3.20932
477      69.7117 1 2 100 -36.9788 5.10783
478      69.7117 1 2 100 -36.9788 0.723143
479      69.7117 1 2 100 -36.9788 2.62165
480      69.7117 1 2 100 -36.9788 4.52015
481      69.7117 1 2 100 -24.6525 0
482      69.7117 1 2 100 -24.6525 3.36006
483      69.7117 1 2 100 -24.6525 0.436941
484      69.7117 1 2 100 -24.6525 3.797
485      69.7117 1 2 100 -24.6525 0.873882
