# Pulseq sequence file
# Created by MATLAB mr toolbox

# Created for Pulseq-CEST
# https://pulseq-cest.github.io/
# Created by: Clemens Stilianu
# Created at: 25-Sep-2025 17:44:49

[VERSION]
major 1
minor 3
revision 1

[DEFINITIONS]
B0 2.89509447 
B1pa 1 
B1rms 0.986292947 
DCsat 0.909090909 
FREQ 123.2627 
M0_offset -300 
Trec 3.5 
Trec_M0 3.5 
Tsat 1.09 
n_pulses 10 
num_meas 34 
offsets_ppm -300 -4 -3.75 -3.5 -3.25 -3 -2.75 -2.5 -2.25 -2 -1.75 -1.5 -1.25 -1 -0.75 -0.5 -0.25 0 0.25 0.5 0.75 1 1.25 1.5 1.75 2 2.25 2.5 2.75 3 3.25 3.5 3.75 4 
seq_id_string OC_3T_001_optimal_control_example 
spoiling 1 
td 0.01 
tp 0.1 

# Format of blocks:
#  #  D RF  GX  GY  GZ ADC EXT
[BLOCKS]
  1  1  0   0   0   0  0  0
  2  0  1   0   0   0  0  0
  3  2  0   0   0   0  0  0
  4  0  2   0   0   0  0  0
  5  2  0   0   0   0  0  0
  6  0  3   0   0   0  0  0
  7  2  0   0   0   0  0  0
  8  0  4   0   0   0  0  0
  9  2  0   0   0   0  0  0
 10  0  5   0   0   0  0  0
 11  2  0   0   0   0  0  0
 12  0  6   0   0   0  0  0
 13  2  0   0   0   0  0  0
 14  0  7   0   0   0  0  0
 15  2  0   0   0   0  0  0
 16  0  8   0   0   0  0  0
 17  2  0   0   0   0  0  0
 18  0  9   0   0   0  0  0
 19  2  0   0   0   0  0  0
 20  0 10   0   0   0  0  0
 21  0  0   1   1   1  0  0
 22  0  0   0   0   0  1  0
 23  1  0   0   0   0  0  0
 24  0 11   0   0   0  0  0
 25  2  0   0   0   0  0  0
 26  0 12   0   0   0  0  0
 27  2  0   0   0   0  0  0
 28  0 13   0   0   0  0  0
 29  2  0   0   0   0  0  0
 30  0 14   0   0   0  0  0
 31  2  0   0   0   0  0  0
 32  0 15   0   0   0  0  0
 33  2  0   0   0   0  0  0
 34  0 16   0   0   0  0  0
 35  2  0   0   0   0  0  0
 36  0 17   0   0   0  0  0
 37  2  0   0   0   0  0  0
 38  0 18   0   0   0  0  0
 39  2  0   0   0   0  0  0
 40  0 19   0   0   0  0  0
 41  2  0   0   0   0  0  0
 42  0 20   0   0   0  0  0
 43  0  0   1   1   1  0  0
 44  0  0   0   0   0  1  0
 45  1  0   0   0   0  0  0
 46  0 21   0   0   0  0  0
 47  2  0   0   0   0  0  0
 48  0 22   0   0   0  0  0
 49  2  0   0   0   0  0  0
 50  0 23   0   0   0  0  0
 51  2  0   0   0   0  0  0
 52  0 24   0   0   0  0  0
 53  2  0   0   0   0  0  0
 54  0 25   0   0   0  0  0
 55  2  0   0   0   0  0  0
 56  0 26   0   0   0  0  0
 57  2  0   0   0   0  0  0
 58  0 27   0   0   0  0  0
 59  2  0   0   0   0  0  0
 60  0 28   0   0   0  0  0
 61  2  0   0   0   0  0  0
 62  0 29   0   0   0  0  0
 63  2  0   0   0   0  0  0
 64  0 30   0   0   0  0  0
 65  0  0   1   1   1  0  0
 66  0  0   0   0   0  1  0
 67  1  0   0   0   0  0  0
 68  0 31   0   0   0  0  0
 69  2  0   0   0   0  0  0
 70  0 32   0   0   0  0  0
 71  2  0   0   0   0  0  0
 72  0 33   0   0   0  0  0
 73  2  0   0   0   0  0  0
 74  0 34   0   0   0  0  0
 75  2  0   0   0   0  0  0
 76  0 35   0   0   0  0  0
 77  2  0   0   0   0  0  0
 78  0 36   0   0   0  0  0
 79  2  0   0   0   0  0  0
 80  0 37   0   0   0  0  0
 81  2  0   0   0   0  0  0
 82  0 38   0   0   0  0  0
 83  2  0   0   0   0  0  0
 84  0 39   0   0   0  0  0
 85  2  0   0   0   0  0  0
 86  0 40   0   0   0  0  0
 87  0  0   1   1   1  0  0
 88  0  0   0   0   0  1  0
 89  1  0   0   0   0  0  0
 90  0 41   0   0   0  0  0
 91  2  0   0   0   0  0  0
 92  0 42   0   0   0  0  0
 93  2  0   0   0   0  0  0
 94  0 43   0   0   0  0  0
 95  2  0   0   0   0  0  0
 96  0 44   0   0   0  0  0
 97  2  0   0   0   0  0  0
 98  0 45   0   0   0  0  0
 99  2  0   0   0   0  0  0
100  0 46   0   0   0  0  0
101  2  0   0   0   0  0  0
102  0 47   0   0   0  0  0
103  2  0   0   0   0  0  0
104  0 48   0   0   0  0  0
105  2  0   0   0   0  0  0
106  0 49   0   0   0  0  0
107  2  0   0   0   0  0  0
108  0 50   0   0   0  0  0
109  0  0   1   1   1  0  0
110  0  0   0   0   0  1  0
111  1  0   0   0   0  0  0
112  0 51   0   0   0  0  0
113  2  0   0   0   0  0  0
114  0 52   0   0   0  0  0
115  2  0   0   0   0  0  0
116  0 53   0   0   0  0  0
117  2  0   0   0   0  0  0
118  0 54   0   0   0  0  0
119  2  0   0   0   0  0  0
120  0 55   0   0   0  0  0
121  2  0   0   0   0  0  0
122  0 56   0   0   0  0  0
123  2  0   0   0   0  0  0
124  0 57   0   0   0  0  0
125  2  0   0   0   0  0  0
126  0 58   0   0   0  0  0
127  2  0   0   0   0  0  0
128  0 59   0   0   0  0  0
129  2  0   0   0   0  0  0
130  0 60   0   0   0  0  0
131  0  0   1   1   1  0  0
132  0  0   0   0   0  1  0
133  1  0   0   0   0  0  0
134  0 61   0   0   0  0  0
135  2  0   0   0   0  0  0
136  0 62   0   0   0  0  0
137  2  0   0   0   0  0  0
138  0 63   0   0   0  0  0
139  2  0   0   0   0  0  0
140  0 64   0   0   0  0  0
141  2  0   0   0   0  0  0
142  0 65   0   0   0  0  0
143  2  0   0   0   0  0  0
144  0 66   0   0   0  0  0
145  2  0   0   0   0  0  0
146  0 67   0   0   0  0  0
147  2  0   0   0   0  0  0
148  0 68   0   0   0  0  0
149  2  0   0   0   0  0  0
150  0 69   0   0   0  0  0
151  2  0   0   0   0  0  0
152  0 70   0   0   0  0  0
153  0  0   1   1   1  0  0
154  0  0   0   0   0  1  0
155  1  0   0   0   0  0  0
156  0 71   0   0   0  0  0
157  2  0   0   0   0  0  0
158  0 72   0   0   0  0  0
159  2  0   0   0   0  0  0
160  0 73   0   0   0  0  0
161  2  0   0   0   0  0  0
162  0 74   0   0   0  0  0
163  2  0   0   0   0  0  0
164  0 75   0   0   0  0  0
165  2  0   0   0   0  0  0
166  0 76   0   0   0  0  0
167  2  0   0   0   0  0  0
168  0 77   0   0   0  0  0
169  2  0   0   0   0  0  0
170  0 78   0   0   0  0  0
171  2  0   0   0   0  0  0
172  0 79   0   0   0  0  0
173  2  0   0   0   0  0  0
174  0 80   0   0   0  0  0
175  0  0   1   1   1  0  0
176  0  0   0   0   0  1  0
177  1  0   0   0   0  0  0
178  0 81   0   0   0  0  0
179  2  0   0   0   0  0  0
180  0 82   0   0   0  0  0
181  2  0   0   0   0  0  0
182  0 83   0   0   0  0  0
183  2  0   0   0   0  0  0
184  0 84   0   0   0  0  0
185  2  0   0   0   0  0  0
186  0 85   0   0   0  0  0
187  2  0   0   0   0  0  0
188  0 86   0   0   0  0  0
189  2  0   0   0   0  0  0
190  0 87   0   0   0  0  0
191  2  0   0   0   0  0  0
192  0 88   0   0   0  0  0
193  2  0   0   0   0  0  0
194  0 89   0   0   0  0  0
195  2  0   0   0   0  0  0
196  0 90   0   0   0  0  0
197  0  0   1   1   1  0  0
198  0  0   0   0   0  1  0
199  1  0   0   0   0  0  0
200  0 91   0   0   0  0  0
201  2  0   0   0   0  0  0
202  0 92   0   0   0  0  0
203  2  0   0   0   0  0  0
204  0 93   0   0   0  0  0
205  2  0   0   0   0  0  0
206  0 94   0   0   0  0  0
207  2  0   0   0   0  0  0
208  0 95   0   0   0  0  0
209  2  0   0   0   0  0  0
210  0 96   0   0   0  0  0
211  2  0   0   0   0  0  0
212  0 97   0   0   0  0  0
213  2  0   0   0   0  0  0
214  0 98   0   0   0  0  0
215  2  0   0   0   0  0  0
216  0 99   0   0   0  0  0
217  2  0   0   0   0  0  0
218  0 100   0   0   0  0  0
219  0  0   1   1   1  0  0
220  0  0   0   0   0  1  0
221  1  0   0   0   0  0  0
222  0 101   0   0   0  0  0
223  2  0   0   0   0  0  0
224  0 102   0   0   0  0  0
225  2  0   0   0   0  0  0
226  0 103   0   0   0  0  0
227  2  0   0   0   0  0  0
228  0 104   0   0   0  0  0
229  2  0   0   0   0  0  0
230  0 105   0   0   0  0  0
231  2  0   0   0   0  0  0
232  0 106   0   0   0  0  0
233  2  0   0   0   0  0  0
234  0 107   0   0   0  0  0
235  2  0   0   0   0  0  0
236  0 108   0   0   0  0  0
237  2  0   0   0   0  0  0
238  0 109   0   0   0  0  0
239  2  0   0   0   0  0  0
240  0 110   0   0   0  0  0
241  0  0   1   1   1  0  0
242  0  0   0   0   0  1  0
243  1  0   0   0   0  0  0
244  0 111   0   0   0  0  0
245  2  0   0   0   0  0  0
246  0 112   0   0   0  0  0
247  2  0   0   0   0  0  0
248  0 113   0   0   0  0  0
249  2  0   0   0   0  0  0
250  0 114   0   0   0  0  0
251  2  0   0   0   0  0  0
252  0 115   0   0   0  0  0
253  2  0   0   0   0  0  0
254  0 116   0   0   0  0  0
255  2  0   0   0   0  0  0
256  0 117   0   0   0  0  0
257  2  0   0   0   0  0  0
258  0 118   0   0   0  0  0
259  2  0   0   0   0  0  0
260  0 119   0   0   0  0  0
261  2  0   0   0   0  0  0
262  0 120   0   0   0  0  0
263  0  0   1   1   1  0  0
264  0  0   0   0   0  1  0
265  1  0   0   0   0  0  0
266  0 121   0   0   0  0  0
267  2  0   0   0   0  0  0
268  0 122   0   0   0  0  0
269  2  0   0   0   0  0  0
270  0 123   0   0   0  0  0
271  2  0   0   0   0  0  0
272  0 124   0   0   0  0  0
273  2  0   0   0   0  0  0
274  0 125   0   0   0  0  0
275  2  0   0   0   0  0  0
276  0 126   0   0   0  0  0
277  2  0   0   0   0  0  0
278  0 127   0   0   0  0  0
279  2  0   0   0   0  0  0
280  0 128   0   0   0  0  0
281  2  0   0   0   0  0  0
282  0 129   0   0   0  0  0
283  2  0   0   0   0  0  0
284  0 130   0   0   0  0  0
285  0  0   1   1   1  0  0
286  0  0   0   0   0  1  0
287  1  0   0   0   0  0  0
288  0 131   0   0   0  0  0
289  2  0   0   0   0  0  0
290  0 132   0   0   0  0  0
291  2  0   0   0   0  0  0
292  0 133   0   0   0  0  0
293  2  0   0   0   0  0  0
294  0 134   0   0   0  0  0
295  2  0   0   0   0  0  0
296  0 135   0   0   0  0  0
297  2  0   0   0   0  0  0
298  0 136   0   0   0  0  0
299  2  0   0   0   0  0  0
300  0 137   0   0   0  0  0
301  2  0   0   0   0  0  0
302  0 138   0   0   0  0  0
303  2  0   0   0   0  0  0
304  0 139   0   0   0  0  0
305  2  0   0   0   0  0  0
306  0 140   0   0   0  0  0
307  0  0   1   1   1  0  0
308  0  0   0   0   0  1  0
309  1  0   0   0   0  0  0
310  0 141   0   0   0  0  0
311  2  0   0   0   0  0  0
312  0 142   0   0   0  0  0
313  2  0   0   0   0  0  0
314  0 143   0   0   0  0  0
315  2  0   0   0   0  0  0
316  0 144   0   0   0  0  0
317  2  0   0   0   0  0  0
318  0 145   0   0   0  0  0
319  2  0   0   0   0  0  0
320  0 146   0   0   0  0  0
321  2  0   0   0   0  0  0
322  0 147   0   0   0  0  0
323  2  0   0   0   0  0  0
324  0 148   0   0   0  0  0
325  2  0   0   0   0  0  0
326  0 149   0   0   0  0  0
327  2  0   0   0   0  0  0
328  0 150   0   0   0  0  0
329  0  0   1   1   1  0  0
330  0  0   0   0   0  1  0
[RF]
1      61.4967 1 2 100 -36978.8 0
2      61.4967 1 2 100 -36978.8 0.747699
3      61.4967 1 2 100 -36978.8 1.4954
4      61.4967 1 2 100 -36978.8 2.2431
5      61.4967 1 2 100 -36978.8 2.9908
6      61.4967 1 2 100 -36978.8 3.7385
7      61.4967 1 2 100 -36978.8 4.48619
8      61.4967 1 2 100 -36978.8 5.23389
9      61.4967 1 2 100 -36978.8 5.98159
10      61.4967 1 2 100 -36978.8 0.446106
11      61.4967 1 2 100 -493.051 0
12      61.4967 1 2 100 -493.051 4.36631
13      61.4967 1 2 100 -493.051 2.44944
14      61.4967 1 2 100 -493.051 0.532563
15      61.4967 1 2 100 -493.051 4.89887
16      61.4967 1 2 100 -493.051 2.982
17      61.4967 1 2 100 -493.051 1.06513
18      61.4967 1 2 100 -493.051 5.43144
19      61.4967 1 2 100 -493.051 3.51456
20      61.4967 1 2 100 -493.051 1.59769
21      61.4967 1 2 100 -462.235 0
22      61.4967 1 2 100 -462.235 4.87881
23      61.4967 1 2 100 -462.235 3.47444
24      61.4967 1 2 100 -462.235 2.07007
25      61.4967 1 2 100 -462.235 0.665703
26      61.4967 1 2 100 -462.235 5.54452
27      61.4967 1 2 100 -462.235 4.14015
28      61.4967 1 2 100 -462.235 2.73578
29      61.4967 1 2 100 -462.235 1.33141
30      61.4967 1 2 100 -462.235 6.21022
31      61.4967 1 2 100 -431.419 0
32      61.4967 1 2 100 -431.419 5.39132
33      61.4967 1 2 100 -431.419 4.49945
34      61.4967 1 2 100 -431.419 3.60759
35      61.4967 1 2 100 -431.419 2.71572
36      61.4967 1 2 100 -431.419 1.82385
37      61.4967 1 2 100 -431.419 0.931985
38      61.4967 1 2 100 -431.419 0.0401181
39      61.4967 1 2 100 -431.419 5.43144
40      61.4967 1 2 100 -431.419 4.53957
41      61.4967 1 2 100 -400.604 0
42      61.4967 1 2 100 -400.604 5.90382
43      61.4967 1 2 100 -400.604 5.52446
44      61.4967 1 2 100 -400.604 5.1451
45      61.4967 1 2 100 -400.604 4.76573
46      61.4967 1 2 100 -400.604 4.38637
47      61.4967 1 2 100 -400.604 4.00701
48      61.4967 1 2 100 -400.604 3.62764
49      61.4967 1 2 100 -400.604 3.24828
50      61.4967 1 2 100 -400.604 2.86892
51      61.4967 1 2 100 -369.788 0
52      61.4967 1 2 100 -369.788 0.133141
53      61.4967 1 2 100 -369.788 0.266281
54      61.4967 1 2 100 -369.788 0.399422
55      61.4967 1 2 100 -369.788 0.532563
56      61.4967 1 2 100 -369.788 0.665703
57      61.4967 1 2 100 -369.788 0.798844
58      61.4967 1 2 100 -369.788 0.931985
59      61.4967 1 2 100 -369.788 1.06513
60      61.4967 1 2 100 -369.788 1.19827
61      61.4967 1 2 100 -338.972 0
62      61.4967 1 2 100 -338.972 0.645644
63      61.4967 1 2 100 -338.972 1.29129
64      61.4967 1 2 100 -338.972 1.93693
65      61.4967 1 2 100 -338.972 2.58258
66      61.4967 1 2 100 -338.972 3.22822
67      61.4967 1 2 100 -338.972 3.87387
68      61.4967 1 2 100 -338.972 4.51951
69      61.4967 1 2 100 -338.972 5.16516
70      61.4967 1 2 100 -338.972 5.8108
71      61.4967 1 2 100 -308.157 0
72      61.4967 1 2 100 -308.157 1.15815
73      61.4967 1 2 100 -308.157 2.3163
74      61.4967 1 2 100 -308.157 3.47444
75      61.4967 1 2 100 -308.157 4.63259
76      61.4967 1 2 100 -308.157 5.79074
77      61.4967 1 2 100 -308.157 0.665703
78      61.4967 1 2 100 -308.157 1.82385
79      61.4967 1 2 100 -308.157 2.982
80      61.4967 1 2 100 -308.157 4.14015
81      61.4967 1 2 100 -277.341 0
82      61.4967 1 2 100 -277.341 1.67065
83      61.4967 1 2 100 -277.341 3.3413
84      61.4967 1 2 100 -277.341 5.01196
85      61.4967 1 2 100 -277.341 0.399422
86      61.4967 1 2 100 -277.341 2.07007
87      61.4967 1 2 100 -277.341 3.74073
88      61.4967 1 2 100 -277.341 5.41138
89      61.4967 1 2 100 -277.341 0.798844
90      61.4967 1 2 100 -277.341 2.4695
91      61.4967 1 2 100 -246.525 0
92      61.4967 1 2 100 -246.525 2.18316
93      61.4967 1 2 100 -246.525 4.36631
94      61.4967 1 2 100 -246.525 0.266281
95      61.4967 1 2 100 -246.525 2.44944
96      61.4967 1 2 100 -246.525 4.63259
97      61.4967 1 2 100 -246.525 0.532563
98      61.4967 1 2 100 -246.525 2.71572
99      61.4967 1 2 100 -246.525 4.89887
100      61.4967 1 2 100 -246.525 0.798844
101      61.4967 1 2 100 -215.71 0
102      61.4967 1 2 100 -215.71 2.69566
103      61.4967 1 2 100 -215.71 5.39132
104      61.4967 1 2 100 -215.71 1.80379
105      61.4967 1 2 100 -215.71 4.49945
106      61.4967 1 2 100 -215.71 0.911926
107      61.4967 1 2 100 -215.71 3.60759
108      61.4967 1 2 100 -215.71 0.0200591
109      61.4967 1 2 100 -215.71 2.71572
110      61.4967 1 2 100 -215.71 5.41138
111      61.4967 1 2 100 -184.894 0
112      61.4967 1 2 100 -184.894 3.20816
113      61.4967 1 2 100 -184.894 0.133141
114      61.4967 1 2 100 -184.894 3.3413
115      61.4967 1 2 100 -184.894 0.266281
116      61.4967 1 2 100 -184.894 3.47444
117      61.4967 1 2 100 -184.894 0.399422
118      61.4967 1 2 100 -184.894 3.60759
119      61.4967 1 2 100 -184.894 0.532563
120      61.4967 1 2 100 -184.894 3.74073
121      61.4967 1 2 100 -154.078 0
122      61.4967 1 2 100 -154.078 3.72067
123      61.4967 1 2 100 -154.078 1.15815
124      61.4967 1 2 100 -154.078 4.87881
125      61.4967 1 2 100 -154.078 2.3163
126      61.4967 1 2 100 -154.078 6.03696
127      61.4967 1 2 100 -154.078 3.47444
128      61.4967 1 2 100 -154.078 0.911926
129      61.4967 1 2 100 -154.078 4.63259
130      61.4967 1 2 100 -154.078 2.07007
131      61.4967 1 2 100 -123.263 0
132      61.4967 1 2 100 -123.263 4.23317
133      61.4967 1 2 100 -123.263 2.18316
134      61.4967 1 2 100 -123.263 0.133141
135      61.4967 1 2 100 -123.263 4.36631
136      61.4967 1 2 100 -123.263 2.3163
137      61.4967 1 2 100 -123.263 0.266281
138      61.4967 1 2 100 -123.263 4.49945
139      61.4967 1 2 100 -123.263 2.44944
140      61.4967 1 2 100 -123.263 0.399422
141      61.4967 1 2 100 -92.447 0
142      61.4967 1 2 100 -92.447 4.74567
143      61.4967 1 2 100 -92.447 3.20816
144      61.4967 1 2 100 -92.447 1.67065
145      61.4967 1 2 100 -92.447 0.133141
146      61.4967 1 2 100 -92.447 4.87881
147      61.4967 1 2 100 -92.447 3.3413
148      61.4967 1 2 100 -92.447 1.80379
149      61.4967 1 2 100 -92.447 0.266281
150      61.4967 1 2 100 -92.447 5.01196
151      61.4967 1 2 100 -61.6313 0
152      61.4967 1 2 100 -61.6313 5.25818
153      61.4967 1 2 100 -61.6313 4.23317
154      61.4967 1 2 100 -61.6313 3.20816
155      61.4967 1 2 100 -61.6313 2.18316
156      61.4967 1 2 100 -61.6313 1.15815
157      61.4967 1 2 100 -61.6313 0.133141
158      61.4967 1 2 100 -61.6313 5.39132
159      61.4967 1 2 100 -61.6313 4.36631
160      61.4967 1 2 100 -61.6313 3.3413
161      61.4967 1 2 100 -30.8157 0
162      61.4967 1 2 100 -30.8157 5.77068
163      61.4967 1 2 100 -30.8157 5.25818
164      61.4967 1 2 100 -30.8157 4.74567
165      61.4967 1 2 100 -30.8157 4.23317
166      61.4967 1 2 100 -30.8157 3.72067
167      61.4967 1 2 100 -30.8157 3.20816
168      61.4967 1 2 100 -30.8157 2.69566
169      61.4967 1 2 100 -30.8157 2.18316
170      61.4967 1 2 100 -30.8157 1.67065
171      61.4967 1 2 100 0 0
172      61.4967 1 2 100 30.8157 0
173      61.4967 1 2 100 30.8157 0.512504
174      61.4967 1 2 100 30.8157 1.02501
175      61.4967 1 2 100 30.8157 1.53751
176      61.4967 1 2 100 30.8157 2.05001
177      61.4967 1 2 100 30.8157 2.56252
178      61.4967 1 2 100 30.8157 3.07502
179      61.4967 1 2 100 30.8157 3.58753
180      61.4967 1 2 100 30.8157 4.10003
181      61.4967 1 2 100 30.8157 4.61253
182      61.4967 1 2 100 61.6313 0
183      61.4967 1 2 100 61.6313 1.02501
184      61.4967 1 2 100 61.6313 2.05001
185      61.4967 1 2 100 61.6313 3.07502
186      61.4967 1 2 100 61.6313 4.10003
187      61.4967 1 2 100 61.6313 5.12504
188      61.4967 1 2 100 61.6313 6.15004
189      61.4967 1 2 100 61.6313 0.891867
190      61.4967 1 2 100 61.6313 1.91687
191      61.4967 1 2 100 61.6313 2.94188
192      61.4967 1 2 100 92.447 0
193      61.4967 1 2 100 92.447 1.53751
194      61.4967 1 2 100 92.447 3.07502
195      61.4967 1 2 100 92.447 4.61253
196      61.4967 1 2 100 92.447 6.15004
197      61.4967 1 2 100 92.447 1.40437
198      61.4967 1 2 100 92.447 2.94188
199      61.4967 1 2 100 92.447 4.47939
200      61.4967 1 2 100 92.447 6.0169
201      61.4967 1 2 100 92.447 1.27123
202      61.4967 1 2 100 123.263 0
203      61.4967 1 2 100 123.263 2.05001
204      61.4967 1 2 100 123.263 4.10003
205      61.4967 1 2 100 123.263 6.15004
206      61.4967 1 2 100 123.263 1.91687
207      61.4967 1 2 100 123.263 3.96689
208      61.4967 1 2 100 123.263 6.0169
209      61.4967 1 2 100 123.263 1.78373
210      61.4967 1 2 100 123.263 3.83375
211      61.4967 1 2 100 123.263 5.88376
212      61.4967 1 2 100 154.078 0
213      61.4967 1 2 100 154.078 2.56252
214      61.4967 1 2 100 154.078 5.12504
215      61.4967 1 2 100 154.078 1.40437
216      61.4967 1 2 100 154.078 3.96689
217      61.4967 1 2 100 154.078 0.246222
218      61.4967 1 2 100 154.078 2.80874
219      61.4967 1 2 100 154.078 5.37126
220      61.4967 1 2 100 154.078 1.65059
221      61.4967 1 2 100 154.078 4.21311
222      61.4967 1 2 100 184.894 0
223      61.4967 1 2 100 184.894 3.07502
224      61.4967 1 2 100 184.894 6.15004
225      61.4967 1 2 100 184.894 2.94188
226      61.4967 1 2 100 184.894 6.0169
227      61.4967 1 2 100 184.894 2.80874
228      61.4967 1 2 100 184.894 5.88376
229      61.4967 1 2 100 184.894 2.6756
230      61.4967 1 2 100 184.894 5.75062
231      61.4967 1 2 100 184.894 2.54246
232      61.4967 1 2 100 215.71 0
233      61.4967 1 2 100 215.71 3.58753
234      61.4967 1 2 100 215.71 0.891867
235      61.4967 1 2 100 215.71 4.47939
236      61.4967 1 2 100 215.71 1.78373
237      61.4967 1 2 100 215.71 5.37126
238      61.4967 1 2 100 215.71 2.6756
239      61.4967 1 2 100 215.71 6.26313
240      61.4967 1 2 100 215.71 3.56747
241      61.4967 1 2 100 215.71 0.871808
242      61.4967 1 2 100 246.525 0
243      61.4967 1 2 100 246.525 4.10003
244      61.4967 1 2 100 246.525 1.91687
245      61.4967 1 2 100 246.525 6.0169
246      61.4967 1 2 100 246.525 3.83375
247      61.4967 1 2 100 246.525 1.65059
248      61.4967 1 2 100 246.525 5.75062
249      61.4967 1 2 100 246.525 3.56747
250      61.4967 1 2 100 246.525 1.38431
251      61.4967 1 2 100 246.525 5.48434
252      61.4967 1 2 100 277.341 0
253      61.4967 1 2 100 277.341 4.61253
254      61.4967 1 2 100 277.341 2.94188
255      61.4967 1 2 100 277.341 1.27123
256      61.4967 1 2 100 277.341 5.88376
257      61.4967 1 2 100 277.341 4.21311
258      61.4967 1 2 100 277.341 2.54246
259      61.4967 1 2 100 277.341 0.871808
260      61.4967 1 2 100 277.341 5.48434
261      61.4967 1 2 100 277.341 3.81369
262      61.4967 1 2 100 308.157 0
263      61.4967 1 2 100 308.157 5.12504
264      61.4967 1 2 100 308.157 3.96689
265      61.4967 1 2 100 308.157 2.80874
266      61.4967 1 2 100 308.157 1.65059
267      61.4967 1 2 100 308.157 0.492445
268      61.4967 1 2 100 308.157 5.61748
269      61.4967 1 2 100 308.157 4.45933
270      61.4967 1 2 100 308.157 3.30119
271      61.4967 1 2 100 308.157 2.14304
272      61.4967 1 2 100 338.972 0
273      61.4967 1 2 100 338.972 5.63754
274      61.4967 1 2 100 338.972 4.9919
275      61.4967 1 2 100 338.972 4.34625
276      61.4967 1 2 100 338.972 3.70061
277      61.4967 1 2 100 338.972 3.05496
278      61.4967 1 2 100 338.972 2.40932
279      61.4967 1 2 100 338.972 1.76367
280      61.4967 1 2 100 338.972 1.11803
281      61.4967 1 2 100 338.972 0.472386
282      61.4967 1 2 100 369.788 0
283      61.4967 1 2 100 369.788 6.15004
284      61.4967 1 2 100 369.788 6.0169
285      61.4967 1 2 100 369.788 5.88376
286      61.4967 1 2 100 369.788 5.75062
287      61.4967 1 2 100 369.788 5.61748
288      61.4967 1 2 100 369.788 5.48434
289      61.4967 1 2 100 369.788 5.3512
290      61.4967 1 2 100 369.788 5.21806
291      61.4967 1 2 100 369.788 5.08492
292      61.4967 1 2 100 400.604 0
293      61.4967 1 2 100 400.604 0.379363
294      61.4967 1 2 100 400.604 0.758726
295      61.4967 1 2 100 400.604 1.13809
296      61.4967 1 2 100 400.604 1.51745
297      61.4967 1 2 100 400.604 1.89682
298      61.4967 1 2 100 400.604 2.27618
299      61.4967 1 2 100 400.604 2.65554
300      61.4967 1 2 100 400.604 3.0349
301      61.4967 1 2 100 400.604 3.41427
302      61.4967 1 2 100 431.419 0
303      61.4967 1 2 100 431.419 0.891867
304      61.4967 1 2 100 431.419 1.78373
305      61.4967 1 2 100 431.419 2.6756
306      61.4967 1 2 100 431.419 3.56747
307      61.4967 1 2 100 431.419 4.45933
308      61.4967 1 2 100 431.419 5.3512
309      61.4967 1 2 100 431.419 6.24307
310      61.4967 1 2 100 431.419 0.851749
311      61.4967 1 2 100 431.419 1.74362
312      61.4967 1 2 100 462.235 0
313      61.4967 1 2 100 462.235 1.40437
314      61.4967 1 2 100 462.235 2.80874
315      61.4967 1 2 100 462.235 4.21311
316      61.4967 1 2 100 462.235 5.61748
317      61.4967 1 2 100 462.235 0.738667
318      61.4967 1 2 100 462.235 2.14304
319      61.4967 1 2 100 462.235 3.54741
320      61.4967 1 2 100 462.235 4.95178
321      61.4967 1 2 100 462.235 0.0729635
322      61.4967 1 2 100 493.051 0
323      61.4967 1 2 100 493.051 1.91687
324      61.4967 1 2 100 493.051 3.83375
325      61.4967 1 2 100 493.051 5.75062
326      61.4967 1 2 100 493.051 1.38431
327      61.4967 1 2 100 493.051 3.30119
328      61.4967 1 2 100 493.051 5.21806
329      61.4967 1 2 100 493.051 0.851749
330      61.4967 1 2 100 493.051 2.76862
331      61.4967 1 2 100 493.051 4.6855

# Format of trapezoid gradients:
# id amplitude rise flat fall delay
# ..      Hz/m   us   us   us    us
[TRAP]
 1  1.36244e+06 1000 4500 1000   0

# Format of ADC events:
# id num dwell delay freq phase
# ..  ..    ns    us   Hz   rad
[ADC]
1 1 1000000 0 0 0

# Format of delays:
# id delay (us)
[DELAYS]
1 3500000
2 10000

# Sequence Shapes
[SHAPES]

shape_id 1
num_samples 100030
0.0731032
0
0
48
0.0013469
0
0
97
0.0023652
0
0
97
0.0033455
0
0
97
0.0042631
0
0
97
0.0050965
0
0
97
0.0058281
0
0
97
0.0064464
0
0
96
0.0069472
0
0
98
0.0073331
0
0
97
0.0076142
0
0
97
0.0078054
0
0
97
0.0079271
0
0
97
0.0080008
0
0
97
0.0080498
0
0
97
0.0080949
0
0
97
0.0081547
0
0
97
0.0082431
0
0
97
0.0083691
0
0
97
0.0085364
0
0
97
0.0087431
0
0
97
0.0089827
0
0
97
0.009245
0
0
97
0.0095167
0
0
96
0.0097836
0
0
98
0.0100308
0
0
97
0.0102452
0
0
97
0.0104155
0
0
97
0.0105336
0
0
97
0.0105956
0
0
97
0.0106007
0
0
97
0.0105531
0
0
97
0.0104598
0
0
97
0.0103316
0
0
97
0.0101811
0
0
97
0.0100227
0
0
97
0.0098709
0
0
97
0.0097402
0
0
97
0.009643
0
0
97
0.0095898
0
0
97
0.0095884
0
0
97
0.0096429
0
0
97
0.0097542
0
0
97
0.0099196
0
0
97
0.0101328
0
0
97
0.0103853
0
0
96
0.0106656
0
0
98
0.0109612
0
0
97
0.0112581
0
0
96
0.0115429
0
0
98
0.0118022
0
0
97
0.0120246
0
0
97
0.0122004
0
0
97
0.0123222
0
0
97
0.0123855
0
0
97
0.0123887
0
0
97
0.0123327
0
0
97
0.0122218
0
0
97
0.0120618
0
0
96
0.0118608
0
0
98
0.0116286
0
0
97
0.011375
0
0
97
0.0111109
0
0
97
0.0108461
0
0
97
0.0105897
0
0
97
0.0103497
0
0
97
0.0101319
0
0
97
0.0099399
0
0
97
0.0097756
0
0
97
0.0096382
0
0
97
0.0095251
0
0
97
0.0094314
0
0
97
0.0093508
0
0
97
0.0092758
0
0
97
0.009198
0
0
97
0.0091092
0
0
97
0.0090006
0
0
97
0.0088653
0
0
97
0.0086967
0
0
97
0.00849
0
0
96
0.0082427
0
0
97
0.0079537
0
0
98
0.0076242
0
0
96
0.0072575
0
0
98
0.0068585
0
0
97
0.0064337
0
0
96
0.0059906
0
0
98
0.0055369
0
0
97
0.0050811
0
0
96
0.0046306
0
0
98
0.0041923
0
0
97
0.0037713
0
0
96
0.0033714
0
0
98
0.0029943
0
0
97
0.00264
0
0
96
0.0023064
0
0
98
0.0019898
0
0
97
0.0016853
0
0
96
0.001387
0
0
98
0.0010889
0
0
97
0.0007852
0
0
97
0.0004702
0
0
97
0.0001405
0
0
97
-0.0002069
0
0
97
-0.0005726
0
0
97
-0.0009553
0
0
96
-0.0013523
0
0
98
-0.0017593
0
0
97
-0.0021703
0
0
96
-0.0025792
0
0
98
-0.0029791
0
0
97
-0.0033635
0
0
96
-0.0037265
0
0
98
-0.0040631
0
0
97
-0.0043695
0
0
96
-0.0046433
0
0
98
-0.0048836
0
0
97
-0.00509
0
0
96
-0.0052639
0
0
98
-0.005407
0
0
97
-0.0055217
0
0
97
-0.0056104
0
0
97
-0.0056762
0
0
97
-0.005722
0
0
97
-0.0057504
0
0
97
-0.0057649
0
0
97
-0.005768
0
0
97
-0.0057631
0
0
97
-0.0057523
0
0
97
-0.0057382
0
0
97
-0.0057225
0
0
97
-0.0057063
0
0
96
-0.0056899
0
0
98
-0.0056729
0
0
97
-0.0056544
0
0
96
-0.0056323
0
0
98
-0.0056046
0
0
97
-0.0055687
0
0
97
-0.0055219
0
0
97
-0.005462
0
0
97
-0.0053867
0
0
97
-0.0052948
0
0
97
-0.0051852
0
0
97
-0.0050582
0
0
97
-0.0049143
0
0
97
-0.0047553
0
0
97
-0.004583
0
0
97
-0.0044006
0
0
97
-0.0042108
0
0
97
-0.0040172
0
0
97
-0.0038228
0
0
97
-0.0036308
0
0
97
-0.0034438
0
0
97
-0.0032641
0
0
97
-0.0030932
0
0
97
-0.0029321
0
0
97
-0.0027811
0
0
97
-0.0026401
0
0
97
-0.0025079
0
0
97
-0.0023833
0
0
97
-0.0022645
0
0
97
-0.0021498
0
0
97
-0.002037
0
0
96
-0.0019241
0
0
98
-0.0018094
0
0
97
-0.0016913
0
0
97
-0.0015685
0
0
97
-0.0014403
0
0
97
-0.0013063
0
0
97
-0.0011664
0
0
97
-0.0010211
0
0
97
-0.0008711
0
0
97
-0.0007177
0
0
97
-0.0005621
0
0
96
-0.0004058
0
0
98
-0.0002505
0
0
97
-9.76e-05
0
0
97
5.11e-05
0
0
97
0.0001943
0
0
97
0.0003307
0
0
96
0.0004592
0
0
98
0.0005791
0
0
97
0.0006897
0
0
97
0.0007908
0
0
97
0.0008823
0
0
97
0.0009642
0
0
97
0.0010374
0
0
97
0.0011019
0
0
97
0.0011589
0
0
97
0.0012091
0
0
97
0.0012534
0
0
97
0.0012929
0
0
97
0.0013286
0
0
97
0.0013614
0
0
97
0.0013922
0
0
97
0.0014216
0
0
97
0.0014505
0
0
96
0.0014791
0
0
98
0.0015078
0
0
97
0.0015367
0
0
97
0.0015657
0
0
97
0.0015945
0
0
97
0.0016229
0
0
97
0.0016502
0
0
97
0.0016761
0
0
97
0.0016998
0
0
97
0.0017208
0
0
97
0.0017385
0
0
97
0.0017525
0
0
97
0.0017622
0
0
97
0.0017675
0
0
97
0.001768
0
0
97
0.0017636
0
0
97
0.0017543
0
0
97
0.0017402
0
0
97
0.0017213
0
0
97
0.0016979
0
0
97
0.0016701
0
0
97
0.0016381
0
0
97
0.0016025
0
0
97
0.0015632
0
0
97
0.0015211
0
0
97
0.0014765
0
0
97
0.0014301
0
0
97
0.0013824
0
0
97
0.0013345
0
0
97
0.0012873
0
0
97
0.0012415
0
0
97
0.0011985
0
0
97
0.0011587
0
0
97
0.0011233
0
0
97
0.0010925
0
0
97
0.0010667
0
0
97
0.0010459
0
0
97
0.0010293
0
0
97
0.0010164
0
0
97
0.0010057
0
0
97
0.0009959
0
0
97
0.0009853
0
0
97
0.000972
0
0
97
0.0009546
0
0
97
0.0009315
0
0
97
0.0009018
0
0
97
0.0008648
0
0
97
0.0008203
0
0
97
0.0007687
0
0
97
0.000711
0
0
97
0.0006481
0
0
97
0.0005816
0
0
97
0.000513
0
0
97
0.0004441
0
0
97
0.0003766
0
0
97
0.0003122
0
0
97
0.0002522
0
0
97
0.0001983
0
0
97
0.0001511
0
0
97
0.0001117
0
0
97
8.04e-05
0
0
97
5.76e-05
0
0
97
4.27e-05
0
0
97
3.54e-05
0
0
97
3.46e-05
0
0
97
3.92e-05
0
0
97
4.77e-05
0
0
97
5.86e-05
0
0
97
7.04e-05
0
0
97
8.13e-05
0
0
97
9.02e-05
0
0
97
9.57e-05
0
0
97
9.73e-05
0
0
97
9.42e-05
0
0
97
8.68e-05
0
0
97
7.55e-05
0
0
97
6.11e-05
0
0
97
4.5e-05
0
0
97
2.89e-05
0
0
97
1.45e-05
0
0
97
3.7e-06
0
0
97
-1.5e-06
0
0
97
6e-07
0
0
97
1.14e-05
0
0
97
3.19e-05
0
0
97
6.3e-05
0
0
97
0.0001046
0
0
97
0.0001563
0
0
97
0.0002171
0
0
97
0.0002855
0
0
97
0.0003597
0
0
97
0.0004374
0
0
97
0.000516
0
0
97
0.0005932
0
0
97
0.0006663
0
0
97
0.0007333
0
0
97
0.0007919
0
0
97
0.0008409
0
0
97
0.0008792
0
0
97
0.0009063
0
0
97
0.0009227
0
0
97
0.0009287
0
0
97
0.0009261
0
0
97
0.0009163
0
0
97
0.0009014
0
0
97
0.0008839
0
0
97
0.0008659
0
0
97
0.0008497
0
0
97
0.0008373
0
0
97
0.0008305
0
0
97
0.0008304
0
0
97
0.0008374
0
0
97
0.0008519
0
0
97
0.0008732
0
0
97
0.0009003
0
0
97
0.0009316
0
0
97
0.0009651
0
0
97
0.0009985
0
0
97
0.0010296
0
0
96
0.001056
0
0
98
0.0010753
0
0
96
0.0010859
0
0
98
0.0010861
0
0
97
0.001075
0
0
97
0.0010525
0
0
97
0.0010183
0
0
96
0.0009736
0
0
98
0.0009198
0
0
96
0.0008586
0
0
98
0.0007922
0
0
97
0.0007233
0
0
96
0.0006543
0
0
98
0.0005876
0
0
96
0.0005255
0
0
98
0.00047
0
0
97
0.0004225
0
0
96
0.0003836
0
0
98
0.0003538
0
0
96
0.0003324
0
0
98
0.0003183
0
0
97
0.0003098
0
0
97
0.0003047
0
0
97
0.0003003
0
0
96
0.0002936
0
0
98
0.0002821
0
0
96
0.0002627
0
0
98
0.0002329
0
0
97
0.0001908
0
0
96
0.000135
0
0
98
6.47e-05
0
0
96
-1.99e-05
0
0
98
-0.000118
0
0
97
-0.0002279
0
0
97
-0.0003471
0
0
97
-0.0004728
0
0
96
-0.0006015
0
0
98
-0.0007295
0
0
97
-0.0008534
0
0
97
-0.0009695
0
0
97
-0.0010749
0
0
96
-0.0011668
0
0
98
-0.001244
0
0
96
-0.0013051
0
0
98
-0.0013503
0
0
97
-0.0013804
0
0
96
-0.0013969
0
0
98
-0.0014022
