# Pulseq sequence file
# Created by MATLAB mr toolbox

# Created for Pulseq-CEST
# https://pulseq-cest.github.io/
# Created by: Clemens Stilianu
# Created at: 24-Nov-2025 14:50:22

[VERSION]
major 1
minor 3
revision 1

[DEFINITIONS]
B0 3 
B1pa 2.10818511 
B1rms 2 
DCsat 0.9 
FREQ 127.7292 
M0_offset -300 
Trec 3.5 
Trec_M0 3.5 
Tsat 2 
n_pulses 18 
num_meas 34 
offsets_ppm -300 -4 -3.75 -3.5 -3.25 -3 -2.75 -2.5 -2.25 -2 -1.75 -1.5 -1.25 -1 -0.75 -0.5 -0.25 0 0.25 0.5 0.75 1 1.25 1.5 1.75 2 2.25 2.5 2.75 3 3.25 3.5 3.75 4 
seq_id_string OC_APTw_3T_000_2uT_18pulses 
spoiling 1 
td 0.0117647059 
tp 0.1 

# Format of blocks:
#  #  D RF  GX  GY  GZ ADC EXT
[BLOCKS]
   1  1  0   0   0   0  0  0
   2  0  1   0   0   0  0  0
   3  2  0   0   0   0  0  0
   4  0  2   0   0   0  0  0
   5  2  0   0   0   0  0  0
   6  0  3   0   0   0  0  0
   7  2  0   0   0   0  0  0
   8  0  4   0   0   0  0  0
   9  2  0   0   0   0  0  0
  10  0  5   0   0   0  0  0
  11  2  0   0   0   0  0  0
  12  0  6   0   0   0  0  0
  13  2  0   0   0   0  0  0
  14  0  7   0   0   0  0  0
  15  2  0   0   0   0  0  0
  16  0  8   0   0   0  0  0
  17  2  0   0   0   0  0  0
  18  0  9   0   0   0  0  0
  19  2  0   0   0   0  0  0
  20  0 10   0   0   0  0  0
  21  2  0   0   0   0  0  0
  22  0 11   0   0   0  0  0
  23  2  0   0   0   0  0  0
  24  0 12   0   0   0  0  0
  25  2  0   0   0   0  0  0
  26  0 13   0   0   0  0  0
  27  2  0   0   0   0  0  0
  28  0 14   0   0   0  0  0
  29  2  0   0   0   0  0  0
  30  0 15   0   0   0  0  0
  31  2  0   0   0   0  0  0
  32  0 16   0   0   0  0  0
  33  2  0   0   0   0  0  0
  34  0 17   0   0   0  0  0
  35  2  0   0   0   0  0  0
  36  0 18   0   0   0  0  0
  37  0  0   1   1   1  0  0
  38  0  0   0   0   0  1  0
  39  1  0   0   0   0  0  0
  40  0 19   0   0   0  0  0
  41  2  0   0   0   0  0  0
  42  0 20   0   0   0  0  0
  43  2  0   0   0   0  0  0
  44  0 21   0   0   0  0  0
  45  2  0   0   0   0  0  0
  46  0 22   0   0   0  0  0
  47  2  0   0   0   0  0  0
  48  0 23   0   0   0  0  0
  49  2  0   0   0   0  0  0
  50  0 24   0   0   0  0  0
  51  2  0   0   0   0  0  0
  52  0 25   0   0   0  0  0
  53  2  0   0   0   0  0  0
  54  0 26   0   0   0  0  0
  55  2  0   0   0   0  0  0
  56  0 27   0   0   0  0  0
  57  2  0   0   0   0  0  0
  58  0 28   0   0   0  0  0
  59  2  0   0   0   0  0  0
  60  0 29   0   0   0  0  0
  61  2  0   0   0   0  0  0
  62  0 30   0   0   0  0  0
  63  2  0   0   0   0  0  0
  64  0 31   0   0   0  0  0
  65  2  0   0   0   0  0  0
  66  0 32   0   0   0  0  0
  67  2  0   0   0   0  0  0
  68  0 33   0   0   0  0  0
  69  2  0   0   0   0  0  0
  70  0 34   0   0   0  0  0
  71  2  0   0   0   0  0  0
  72  0 35   0   0   0  0  0
  73  2  0   0   0   0  0  0
  74  0 36   0   0   0  0  0
  75  0  0   1   1   1  0  0
  76  0  0   0   0   0  1  0
  77  1  0   0   0   0  0  0
  78  0 37   0   0   0  0  0
  79  2  0   0   0   0  0  0
  80  0 38   0   0   0  0  0
  81  2  0   0   0   0  0  0
  82  0 39   0   0   0  0  0
  83  2  0   0   0   0  0  0
  84  0 40   0   0   0  0  0
  85  2  0   0   0   0  0  0
  86  0 41   0   0   0  0  0
  87  2  0   0   0   0  0  0
  88  0 42   0   0   0  0  0
  89  2  0   0   0   0  0  0
  90  0 43   0   0   0  0  0
  91  2  0   0   0   0  0  0
  92  0 44   0   0   0  0  0
  93  2  0   0   0   0  0  0
  94  0 45   0   0   0  0  0
  95  2  0   0   0   0  0  0
  96  0 46   0   0   0  0  0
  97  2  0   0   0   0  0  0
  98  0 47   0   0   0  0  0
  99  2  0   0   0   0  0  0
 100  0 48   0   0   0  0  0
 101  2  0   0   0   0  0  0
 102  0 49   0   0   0  0  0
 103  2  0   0   0   0  0  0
 104  0 50   0   0   0  0  0
 105  2  0   0   0   0  0  0
 106  0 51   0   0   0  0  0
 107  2  0   0   0   0  0  0
 108  0 52   0   0   0  0  0
 109  2  0   0   0   0  0  0
 110  0 53   0   0   0  0  0
 111  2  0   0   0   0  0  0
 112  0 54   0   0   0  0  0
 113  0  0   1   1   1  0  0
 114  0  0   0   0   0  1  0
 115  1  0   0   0   0  0  0
 116  0 55   0   0   0  0  0
 117  2  0   0   0   0  0  0
 118  0 56   0   0   0  0  0
 119  2  0   0   0   0  0  0
 120  0 57   0   0   0  0  0
 121  2  0   0   0   0  0  0
 122  0 58   0   0   0  0  0
 123  2  0   0   0   0  0  0
 124  0 59   0   0   0  0  0
 125  2  0   0   0   0  0  0
 126  0 60   0   0   0  0  0
 127  2  0   0   0   0  0  0
 128  0 61   0   0   0  0  0
 129  2  0   0   0   0  0  0
 130  0 62   0   0   0  0  0
 131  2  0   0   0   0  0  0
 132  0 63   0   0   0  0  0
 133  2  0   0   0   0  0  0
 134  0 64   0   0   0  0  0
 135  2  0   0   0   0  0  0
 136  0 65   0   0   0  0  0
 137  2  0   0   0   0  0  0
 138  0 66   0   0   0  0  0
 139  2  0   0   0   0  0  0
 140  0 67   0   0   0  0  0
 141  2  0   0   0   0  0  0
 142  0 68   0   0   0  0  0
 143  2  0   0   0   0  0  0
 144  0 69   0   0   0  0  0
 145  2  0   0   0   0  0  0
 146  0 70   0   0   0  0  0
 147  2  0   0   0   0  0  0
 148  0 71   0   0   0  0  0
 149  2  0   0   0   0  0  0
 150  0 72   0   0   0  0  0
 151  0  0   1   1   1  0  0
 152  0  0   0   0   0  1  0
 153  1  0   0   0   0  0  0
 154  0 73   0   0   0  0  0
 155  2  0   0   0   0  0  0
 156  0 74   0   0   0  0  0
 157  2  0   0   0   0  0  0
 158  0 75   0   0   0  0  0
 159  2  0   0   0   0  0  0
 160  0 76   0   0   0  0  0
 161  2  0   0   0   0  0  0
 162  0 77   0   0   0  0  0
 163  2  0   0   0   0  0  0
 164  0 78   0   0   0  0  0
 165  2  0   0   0   0  0  0
 166  0 79   0   0   0  0  0
 167  2  0   0   0   0  0  0
 168  0 80   0   0   0  0  0
 169  2  0   0   0   0  0  0
 170  0 81   0   0   0  0  0
 171  2  0   0   0   0  0  0
 172  0 82   0   0   0  0  0
 173  2  0   0   0   0  0  0
 174  0 83   0   0   0  0  0
 175  2  0   0   0   0  0  0
 176  0 84   0   0   0  0  0
 177  2  0   0   0   0  0  0
 178  0 85   0   0   0  0  0
 179  2  0   0   0   0  0  0
 180  0 86   0   0   0  0  0
 181  2  0   0   0   0  0  0
 182  0 87   0   0   0  0  0
 183  2  0   0   0   0  0  0
 184  0 88   0   0   0  0  0
 185  2  0   0   0   0  0  0
 186  0 89   0   0   0  0  0
 187  2  0   0   0   0  0  0
 188  0 90   0   0   0  0  0
 189  0  0   1   1   1  0  0
 190  0  0   0   0   0  1  0
 191  1  0   0   0   0  0  0
 192  0 91   0   0   0  0  0
 193  2  0   0   0   0  0  0
 194  0 92   0   0   0  0  0
 195  2  0   0   0   0  0  0
 196  0 93   0   0   0  0  0
 197  2  0   0   0   0  0  0
 198  0 94   0   0   0  0  0
 199  2  0   0   0   0  0  0
 200  0 95   0   0   0  0  0
 201  2  0   0   0   0  0  0
 202  0 96   0   0   0  0  0
 203  2  0   0   0   0  0  0
 204  0 97   0   0   0  0  0
 205  2  0   0   0   0  0  0
 206  0 98   0   0   0  0  0
 207  2  0   0   0   0  0  0
 208  0 99   0   0   0  0  0
 209  2  0   0   0   0  0  0
 210  0 100   0   0   0  0  0
 211  2  0   0   0   0  0  0
 212  0 101   0   0   0  0  0
 213  2  0   0   0   0  0  0
 214  0 102   0   0   0  0  0
 215  2  0   0   0   0  0  0
 216  0 103   0   0   0  0  0
 217  2  0   0   0   0  0  0
 218  0 104   0   0   0  0  0
 219  2  0   0   0   0  0  0
 220  0 105   0   0   0  0  0
 221  2  0   0   0   0  0  0
 222  0 106   0   0   0  0  0
 223  2  0   0   0   0  0  0
 224  0 107   0   0   0  0  0
 225  2  0   0   0   0  0  0
 226  0 108   0   0   0  0  0
 227  0  0   1   1   1  0  0
 228  0  0   0   0   0  1  0
 229  1  0   0   0   0  0  0
 230  0 109   0   0   0  0  0
 231  2  0   0   0   0  0  0
 232  0 110   0   0   0  0  0
 233  2  0   0   0   0  0  0
 234  0 111   0   0   0  0  0
 235  2  0   0   0   0  0  0
 236  0 112   0   0   0  0  0
 237  2  0   0   0   0  0  0
 238  0 113   0   0   0  0  0
 239  2  0   0   0   0  0  0
 240  0 114   0   0   0  0  0
 241  2  0   0   0   0  0  0
 242  0 115   0   0   0  0  0
 243  2  0   0   0   0  0  0
 244  0 116   0   0   0  0  0
 245  2  0   0   0   0  0  0
 246  0 117   0   0   0  0  0
 247  2  0   0   0   0  0  0
 248  0 118   0   0   0  0  0
 249  2  0   0   0   0  0  0
 250  0 119   0   0   0  0  0
 251  2  0   0   0   0  0  0
 252  0 120   0   0   0  0  0
 253  2  0   0   0   0  0  0
 254  0 121   0   0   0  0  0
 255  2  0   0   0   0  0  0
 256  0 122   0   0   0  0  0
 257  2  0   0   0   0  0  0
 258  0 123   0   0   0  0  0
 259  2  0   0   0   0  0  0
 260  0 124   0   0   0  0  0
 261  2  0   0   0   0  0  0
 262  0 125   0   0   0  0  0
 263  2  0   0   0   0  0  0
 264  0 126   0   0   0  0  0
 265  0  0   1   1   1  0  0
 266  0  0   0   0   0  1  0
 267  1  0   0   0   0  0  0
 268  0 127   0   0   0  0  0
 269  2  0   0   0   0  0  0
 270  0 128   0   0   0  0  0
 271  2  0   0   0   0  0  0
 272  0 129   0   0   0  0  0
 273  2  0   0   0   0  0  0
 274  0 130   0   0   0  0  0
 275  2  0   0   0   0  0  0
 276  0 131   0   0   0  0  0
 277  2  0   0   0   0  0  0
 278  0 132   0   0   0  0  0
 279  2  0   0   0   0  0  0
 280  0 133   0   0   0  0  0
 281  2  0   0   0   0  0  0
 282  0 134   0   0   0  0  0
 283  2  0   0   0   0  0  0
 284  0 135   0   0   0  0  0
 285  2  0   0   0   0  0  0
 286  0 136   0   0   0  0  0
 287  2  0   0   0   0  0  0
 288  0 137   0   0   0  0  0
 289  2  0   0   0   0  0  0
 290  0 138   0   0   0  0  0
 291  2  0   0   0   0  0  0
 292  0 139   0   0   0  0  0
 293  2  0   0   0   0  0  0
 294  0 140   0   0   0  0  0
 295  2  0   0   0   0  0  0
 296  0 141   0   0   0  0  0
 297  2  0   0   0   0  0  0
 298  0 142   0   0   0  0  0
 299  2  0   0   0   0  0  0
 300  0 143   0   0   0  0  0
 301  2  0   0   0   0  0  0
 302  0 144   0   0   0  0  0
 303  0  0   1   1   1  0  0
 304  0  0   0   0   0  1  0
 305  1  0   0   0   0  0  0
 306  0 145   0   0   0  0  0
 307  2  0   0   0   0  0  0
 308  0 146   0   0   0  0  0
 309  2  0   0   0   0  0  0
 310  0 147   0   0   0  0  0
 311  2  0   0   0   0  0  0
 312  0 148   0   0   0  0  0
 313  2  0   0   0   0  0  0
 314  0 149   0   0   0  0  0
 315  2  0   0   0   0  0  0
 316  0 150   0   0   0  0  0
 317  2  0   0   0   0  0  0
 318  0 151   0   0   0  0  0
 319  2  0   0   0   0  0  0
[RF]
1      125.699 1 2 100 -38318.8 0
2      125.699 1 2 100 -38318.8 0.779115
3      125.699 1 2 100 -38318.8 1.55823
4      125.699 1 2 100 -38318.8 2.33734
5      125.699 1 2 100 -38318.8 3.11646
6      125.699 1 2 100 -38318.8 3.89557
7      125.699 1 2 100 -38318.8 4.67469
8      125.699 1 2 100 -38318.8 5.4538
9      125.699 1 2 100 -38318.8 6.23292
10      125.699 1 2 100 -38318.8 0.728849
11      125.699 1 2 100 -38318.8 1.50796
12      125.699 1 2 100 -38318.8 2.28708
13      125.699 1 2 100 -38318.8 3.06619
14      125.699 1 2 100 -38318.8 3.84531
15      125.699 1 2 100 -38318.8 4.62442
16      125.699 1 2 100 -38318.8 5.40354
17      125.699 1 2 100 -38318.8 6.18265
18      125.699 1 2 100 -38318.8 0.678584
19      125.699 1 2 100 -510.917 0
20      125.699 1 2 100 -510.917 5.70714
21      125.699 1 2 100 -510.917 5.1311
22      125.699 1 2 100 -510.917 4.55506
23      125.699 1 2 100 -510.917 3.97902
24      125.699 1 2 100 -510.917 3.40297
25      125.699 1 2 100 -510.917 2.82693
26      125.699 1 2 100 -510.917 2.25089
27      125.699 1 2 100 -510.917 1.67485
28      125.699 1 2 100 -510.917 1.0988
29      125.699 1 2 100 -510.917 0.522761
30      125.699 1 2 100 -510.917 6.2299
31      125.699 1 2 100 -510.917 5.65386
32      125.699 1 2 100 -510.917 5.07782
33      125.699 1 2 100 -510.917 4.50178
34      125.699 1 2 100 -510.917 3.92573
35      125.699 1 2 100 -510.917 3.34969
36      125.699 1 2 100 -510.917 2.77365
37      125.699 1 2 100 -478.985 0
38      125.699 1 2 100 -478.985 0.638057
39      125.699 1 2 100 -478.985 1.27611
40      125.699 1 2 100 -478.985 1.91417
41      125.699 1 2 100 -478.985 2.55223
42      125.699 1 2 100 -478.985 3.19029
43      125.699 1 2 100 -478.985 3.82834
44      125.699 1 2 100 -478.985 4.4664
45      125.699 1 2 100 -478.985 5.10446
46      125.699 1 2 100 -478.985 5.74252
47      125.699 1 2 100 -478.985 0.0973894
48      125.699 1 2 100 -478.985 0.735447
49      125.699 1 2 100 -478.985 1.3735
50      125.699 1 2 100 -478.985 2.01156
51      125.699 1 2 100 -478.985 2.64962
52      125.699 1 2 100 -478.985 3.28768
53      125.699 1 2 100 -478.985 3.92573
54      125.699 1 2 100 -478.985 4.56379
55      125.699 1 2 100 -447.052 0
56      125.699 1 2 100 -447.052 1.85216
57      125.699 1 2 100 -447.052 3.70431
58      125.699 1 2 100 -447.052 5.55647
59      125.699 1 2 100 -447.052 1.12544
60      125.699 1 2 100 -447.052 2.9776
61      125.699 1 2 100 -447.052 4.82976
62      125.699 1 2 100 -447.052 0.398731
63      125.699 1 2 100 -447.052 2.25089
64      125.699 1 2 100 -447.052 4.10305
65      125.699 1 2 100 -447.052 5.9552
66      125.699 1 2 100 -447.052 1.52418
67      125.699 1 2 100 -447.052 3.37633
68      125.699 1 2 100 -447.052 5.22849
69      125.699 1 2 100 -447.052 0.797462
70      125.699 1 2 100 -447.052 2.64962
71      125.699 1 2 100 -447.052 4.50178
72      125.699 1 2 100 -447.052 0.0707487
73      125.699 1 2 100 -415.12 0
74      125.699 1 2 100 -415.12 3.06626
75      125.699 1 2 100 -415.12 6.13251
76      125.699 1 2 100 -415.12 2.91559
77      125.699 1 2 100 -415.12 5.98184
78      125.699 1 2 100 -415.12 2.76492
79      125.699 1 2 100 -415.12 5.83117
80      125.699 1 2 100 -415.12 2.61424
81      125.699 1 2 100 -415.12 5.6805
82      125.699 1 2 100 -415.12 2.46357
83      125.699 1 2 100 -415.12 5.52983
84      125.699 1 2 100 -415.12 2.3129
85      125.699 1 2 100 -415.12 5.37916
86      125.699 1 2 100 -415.12 2.16223
87      125.699 1 2 100 -415.12 5.22849
88      125.699 1 2 100 -415.12 2.01156
89      125.699 1 2 100 -415.12 5.07782
90      125.699 1 2 100 -415.12 1.86089
91      125.699 1 2 100 -383.188 0
92      125.699 1 2 100 -383.188 4.28036
93      125.699 1 2 100 -383.188 2.27753
94      125.699 1 2 100 -383.188 0.274701
95      125.699 1 2 100 -383.188 4.55506
96      125.699 1 2 100 -383.188 2.55223
97      125.699 1 2 100 -383.188 0.549402
98      125.699 1 2 100 -383.188 4.82976
99      125.699 1 2 100 -383.188 2.82693
100      125.699 1 2 100 -383.188 0.824103
101      125.699 1 2 100 -383.188 5.10446
102      125.699 1 2 100 -383.188 3.10163
103      125.699 1 2 100 -383.188 1.0988
104      125.699 1 2 100 -383.188 5.37916
105      125.699 1 2 100 -383.188 3.37633
106      125.699 1 2 100 -383.188 1.3735
107      125.699 1 2 100 -383.188 5.65386
108      125.699 1 2 100 -383.188 3.65103
109      125.699 1 2 100 -351.255 0
110      125.699 1 2 100 -351.255 5.49446
111      125.699 1 2 100 -351.255 4.70573
112      125.699 1 2 100 -351.255 3.917
113      125.699 1 2 100 -351.255 3.12827
114      125.699 1 2 100 -351.255 2.33954
115      125.699 1 2 100 -351.255 1.55082
116      125.699 1 2 100 -351.255 0.762088
117      125.699 1 2 100 -351.255 6.25654
118      125.699 1 2 100 -351.255 5.46782
119      125.699 1 2 100 -351.255 4.67909
120      125.699 1 2 100 -351.255 3.89036
121      125.699 1 2 100 -351.255 3.10163
122      125.699 1 2 100 -351.255 2.3129
123      125.699 1 2 100 -351.255 1.52418
124      125.699 1 2 100 -351.255 0.735447
125      125.699 1 2 100 -351.255 6.2299
126      125.699 1 2 100 -351.255 5.44118
127      125.699 1 2 100 -319.323 0
128      125.699 1 2 100 -319.323 0.425372
129      125.699 1 2 100 -319.323 0.850743
130      125.699 1 2 100 -319.323 1.27611
131      125.699 1 2 100 -319.323 1.70149
132      125.699 1 2 100 -319.323 2.12686
133      125.699 1 2 100 -319.323 2.55223
134      125.699 1 2 100 -319.323 2.9776
135      125.699 1 2 100 -319.323 3.40297
136      125.699 1 2 100 -319.323 3.82834
137      125.699 1 2 100 -319.323 4.25372
138      125.699 1 2 100 -319.323 4.67909
139      125.699 1 2 100 -319.323 5.10446
140      125.699 1 2 100 -319.323 5.52983
141      125.699 1 2 100 -319.323 5.9552
142      125.699 1 2 100 -319.323 0.0973894
143      125.699 1 2 100 -319.323 0.522761
144      125.699 1 2 100 -319.323 0.948133
145      125.699 1 2 100 -287.391 0
146      125.699 1 2 100 -287.391 1.63947
147      125.699 1 2 100 -287.391 3.27894
148      125.699 1 2 100 -287.391 4.91841
149      125.699 1 2 100 -287.391 0.274701
150      125.699 1 2 100 -287.391 1.91417
151      125.699 1 2 100 -287.391 3.55364
152      125.699 1 2 100 -287.391 5.19312
153      125.699 1 2 100 -287.391 0.549402
154      125.699 1 2 100 -287.391 2.18887
155      125.699 1 2 100 -287.391 3.82834
156      125.699 1 2 100 -287.391 5.46782
157      125.699 1 2 100 -287.391 0.824103
158      125.699 1 2 100 -287.391 2.46357
159      125.699 1 2 100 -287.391 4.10305
160      125.699 1 2 100 -287.391 5.74252
161      125.699 1 2 100 -287.391 1.0988
162      125.699 1 2 100 -287.391 2.73827
163      125.699 1 2 100 -255.458 0
164      125.699 1 2 100 -255.458 2.85357
165      125.699 1 2 100 -255.458 5.70714
166      125.699 1 2 100 -255.458 2.27753
167      125.699 1 2 100 -255.458 5.1311
168      125.699 1 2 100 -255.458 1.70149
169      125.699 1 2 100 -255.458 4.55506
170      125.699 1 2 100 -255.458 1.12544
171      125.699 1 2 100 -255.458 3.97902
172      125.699 1 2 100 -255.458 0.549402
173      125.699 1 2 100 -255.458 3.40297
174      125.699 1 2 100 -255.458 6.25654
175      125.699 1 2 100 -255.458 2.82693
176      125.699 1 2 100 -255.458 5.6805
177      125.699 1 2 100 -255.458 2.25089
178      125.699 1 2 100 -255.458 5.10446
179      125.699 1 2 100 -255.458 1.67485
180      125.699 1 2 100 -255.458 4.52842
181      125.699 1 2 100 -223.526 0
182      125.699 1 2 100 -223.526 4.06767
183      125.699 1 2 100 -223.526 1.85216
184      125.699 1 2 100 -223.526 5.91983
185      125.699 1 2 100 -223.526 3.70431
186      125.699 1 2 100 -223.526 1.4888
187      125.699 1 2 100 -223.526 5.55647
188      125.699 1 2 100 -223.526 3.34096
189      125.699 1 2 100 -223.526 1.12544
190      125.699 1 2 100 -223.526 5.19312
191      125.699 1 2 100 -223.526 2.9776
192      125.699 1 2 100 -223.526 0.762088
193      125.699 1 2 100 -223.526 4.82976
194      125.699 1 2 100 -223.526 2.61424
195      125.699 1 2 100 -223.526 0.398731
196      125.699 1 2 100 -223.526 4.4664
197      125.699 1 2 100 -223.526 2.25089
198      125.699 1 2 100 -223.526 0.0353743
199      125.699 1 2 100 -191.594 0
200      125.699 1 2 100 -191.594 5.28177
201      125.699 1 2 100 -191.594 4.28036
202      125.699 1 2 100 -191.594 3.27894
203      125.699 1 2 100 -191.594 2.27753
204      125.699 1 2 100 -191.594 1.27611
205      125.699 1 2 100 -191.594 0.274701
206      125.699 1 2 100 -191.594 5.55647
207      125.699 1 2 100 -191.594 4.55506
208      125.699 1 2 100 -191.594 3.55364
209      125.699 1 2 100 -191.594 2.55223
210      125.699 1 2 100 -191.594 1.55082
211      125.699 1 2 100 -191.594 0.549402
212      125.699 1 2 100 -191.594 5.83117
213      125.699 1 2 100 -191.594 4.82976
214      125.699 1 2 100 -191.594 3.82834
215      125.699 1 2 100 -191.594 2.82693
216      125.699 1 2 100 -191.594 1.82552
217      125.699 1 2 100 -159.662 0
218      125.699 1 2 100 -159.662 0.212686
219      125.699 1 2 100 -159.662 0.425372
220      125.699 1 2 100 -159.662 0.638057
221      125.699 1 2 100 -159.662 0.850743
222      125.699 1 2 100 -159.662 1.06343
223      125.699 1 2 100 -159.662 1.27611
224      125.699 1 2 100 -159.662 1.4888
225      125.699 1 2 100 -159.662 1.70149
226      125.699 1 2 100 -159.662 1.91417
227      125.699 1 2 100 -159.662 2.12686
228      125.699 1 2 100 -159.662 2.33954
229      125.699 1 2 100 -159.662 2.55223
230      125.699 1 2 100 -159.662 2.76492
231      125.699 1 2 100 -159.662 2.9776
232      125.699 1 2 100 -159.662 3.19029
233      125.699 1 2 100 -159.662 3.40297
234      125.699 1 2 100 -159.662 3.61566
235      125.699 1 2 100 -127.729 0
236      125.699 1 2 100 -127.729 1.42679
237      125.699 1 2 100 -127.729 2.85357
238      125.699 1 2 100 -127.729 4.28036
239      125.699 1 2 100 -127.729 5.70714
240      125.699 1 2 100 -127.729 0.850743
241      125.699 1 2 100 -127.729 2.27753
242      125.699 1 2 100 -127.729 3.70431
243      125.699 1 2 100 -127.729 5.1311
244      125.699 1 2 100 -127.729 0.274701
245      125.699 1 2 100 -127.729 1.70149
246      125.699 1 2 100 -127.729 3.12827
247      125.699 1 2 100 -127.729 4.55506
248      125.699 1 2 100 -127.729 5.98184
249      125.699 1 2 100 -127.729 1.12544
250      125.699 1 2 100 -127.729 2.55223
251      125.699 1 2 100 -127.729 3.97902
252      125.699 1 2 100 -127.729 5.4058
253      125.699 1 2 100 -95.7969 0
254      125.699 1 2 100 -95.7969 2.64089
255      125.699 1 2 100 -95.7969 5.28177
256      125.699 1 2 100 -95.7969 1.63947
257      125.699 1 2 100 -95.7969 4.28036
258      125.699 1 2 100 -95.7969 0.638057
259      125.699 1 2 100 -95.7969 3.27894
260      125.699 1 2 100 -95.7969 5.91983
261      125.699 1 2 100 -95.7969 2.27753
262      125.699 1 2 100 -95.7969 4.91841
263      125.699 1 2 100 -95.7969 1.27611
264      125.699 1 2 100 -95.7969 3.917
265      125.699 1 2 100 -95.7969 0.274701
266      125.699 1 2 100 -95.7969 2.91559
267      125.699 1 2 100 -95.7969 5.55647
268      125.699 1 2 100 -95.7969 1.91417
269      125.699 1 2 100 -95.7969 4.55506
270      125.699 1 2 100 -95.7969 0.912758
271      125.699 1 2 100 -63.8646 0
272      125.699 1 2 100 -63.8646 3.85499
273      125.699 1 2 100 -63.8646 1.42679
274      125.699 1 2 100 -63.8646 5.28177
275      125.699 1 2 100 -63.8646 2.85357
276      125.699 1 2 100 -63.8646 0.425372
277      125.699 1 2 100 -63.8646 4.28036
278      125.699 1 2 100 -63.8646 1.85216
279      125.699 1 2 100 -63.8646 5.70714
280      125.699 1 2 100 -63.8646 3.27894
281      125.699 1 2 100 -63.8646 0.850743
282      125.699 1 2 100 -63.8646 4.70573
283      125.699 1 2 100 -63.8646 2.27753
284      125.699 1 2 100 -63.8646 6.13251
285      125.699 1 2 100 -63.8646 3.70431
286      125.699 1 2 100 -63.8646 1.27611
287      125.699 1 2 100 -63.8646 5.1311
288      125.699 1 2 100 -63.8646 2.7029
289      125.699 1 2 100 -31.9323 0
290      125.699 1 2 100 -31.9323 5.06909
291      125.699 1 2 100 -31.9323 3.85499
292      125.699 1 2 100 -31.9323 2.64089
293      125.699 1 2 100 -31.9323 1.42679
294      125.699 1 2 100 -31.9323 0.212686
295      125.699 1 2 100 -31.9323 5.28177
296      125.699 1 2 100 -31.9323 4.06767
297      125.699 1 2 100 -31.9323 2.85357
298      125.699 1 2 100 -31.9323 1.63947
299      125.699 1 2 100 -31.9323 0.425372
300      125.699 1 2 100 -31.9323 5.49446
301      125.699 1 2 100 -31.9323 4.28036
302      125.699 1 2 100 -31.9323 3.06626
303      125.699 1 2 100 -31.9323 1.85216
304      125.699 1 2 100 -31.9323 0.638057
305      125.699 1 2 100 -31.9323 5.70714
306      125.699 1 2 100 -31.9323 4.49304
307      125.699 1 2 100 0 0
308      125.699 1 2 100 31.9323 0
309      125.699 1 2 100 31.9323 1.2141
310      125.699 1 2 100 31.9323 2.4282
311      125.699 1 2 100 31.9323 3.6423
312      125.699 1 2 100 31.9323 4.8564
313      125.699 1 2 100 31.9323 6.0705
314      125.699 1 2 100 31.9323 1.00141
315      125.699 1 2 100 31.9323 2.21551
316      125.699 1 2 100 31.9323 3.42961
317      125.699 1 2 100 31.9323 4.64371
318      125.699 1 2 100 31.9323 5.85781
319      125.699 1 2 100 31.9323 0.788728
320      125.699 1 2 100 31.9323 2.00283
321      125.699 1 2 100 31.9323 3.21693
322      125.699 1 2 100 31.9323 4.43103
323      125.699 1 2 100 31.9323 5.64513
324      125.699 1 2 100 31.9323 0.576042
325      125.699 1 2 100 31.9323 1.79014
326      125.699 1 2 100 63.8646 0
327      125.699 1 2 100 63.8646 2.4282
328      125.699 1 2 100 63.8646 4.8564
329      125.699 1 2 100 63.8646 1.00141
330      125.699 1 2 100 63.8646 3.42961
331      125.699 1 2 100 63.8646 5.85781
332      125.699 1 2 100 63.8646 2.00283
333      125.699 1 2 100 63.8646 4.43103
334      125.699 1 2 100 63.8646 0.576042
335      125.699 1 2 100 63.8646 3.00424
336      125.699 1 2 100 63.8646 5.43244
337      125.699 1 2 100 63.8646 1.57746
338      125.699 1 2 100 63.8646 4.00566
339      125.699 1 2 100 63.8646 0.150671
340      125.699 1 2 100 63.8646 2.57887
341      125.699 1 2 100 63.8646 5.00707
342      125.699 1 2 100 63.8646 1.15208
343      125.699 1 2 100 63.8646 3.58028
344      125.699 1 2 100 95.7969 0
345      125.699 1 2 100 95.7969 3.6423
346      125.699 1 2 100 95.7969 1.00141
347      125.699 1 2 100 95.7969 4.64371
348      125.699 1 2 100 95.7969 2.00283
349      125.699 1 2 100 95.7969 5.64513
350      125.699 1 2 100 95.7969 3.00424
351      125.699 1 2 100 95.7969 0.363357
352      125.699 1 2 100 95.7969 4.00566
353      125.699 1 2 100 95.7969 1.36477
354      125.699 1 2 100 95.7969 5.00707
355      125.699 1 2 100 95.7969 2.36618
356      125.699 1 2 100 95.7969 6.00848
357      125.699 1 2 100 95.7969 3.3676
358      125.699 1 2 100 95.7969 0.726713
359      125.699 1 2 100 95.7969 4.36901
360      125.699 1 2 100 95.7969 1.72813
361      125.699 1 2 100 95.7969 5.37043
362      125.699 1 2 100 127.729 0
363      125.699 1 2 100 127.729 4.8564
364      125.699 1 2 100 127.729 3.42961
365      125.699 1 2 100 127.729 2.00283
366      125.699 1 2 100 127.729 0.576042
367      125.699 1 2 100 127.729 5.43244
368      125.699 1 2 100 127.729 4.00566
369      125.699 1 2 100 127.729 2.57887
370      125.699 1 2 100 127.729 1.15208
371      125.699 1 2 100 127.729 6.00848
372      125.699 1 2 100 127.729 4.5817
373      125.699 1 2 100 127.729 3.15491
374      125.699 1 2 100 127.729 1.72813
375      125.699 1 2 100 127.729 0.301342
376      125.699 1 2 100 127.729 5.15774
377      125.699 1 2 100 127.729 3.73096
378      125.699 1 2 100 127.729 2.30417
379      125.699 1 2 100 127.729 0.877384
380      125.699 1 2 100 159.662 0
381      125.699 1 2 100 159.662 6.0705
382      125.699 1 2 100 159.662 5.85781
383      125.699 1 2 100 159.662 5.64513
384      125.699 1 2 100 159.662 5.43244
385      125.699 1 2 100 159.662 5.21976
386      125.699 1 2 100 159.662 5.00707
387      125.699 1 2 100 159.662 4.79438
388      125.699 1 2 100 159.662 4.5817
389      125.699 1 2 100 159.662 4.36901
390      125.699 1 2 100 159.662 4.15633
391      125.699 1 2 100 159.662 3.94364
392      125.699 1 2 100 159.662 3.73096
393      125.699 1 2 100 159.662 3.51827
394      125.699 1 2 100 159.662 3.30558
395      125.699 1 2 100 159.662 3.0929
396      125.699 1 2 100 159.662 2.88021
397      125.699 1 2 100 159.662 2.66753
398      125.699 1 2 100 191.594 0
399      125.699 1 2 100 191.594 1.00141
400      125.699 1 2 100 191.594 2.00283
401      125.699 1 2 100 191.594 3.00424
402      125.699 1 2 100 191.594 4.00566
403      125.699 1 2 100 191.594 5.00707
404      125.699 1 2 100 191.594 6.00848
405      125.699 1 2 100 191.594 0.726713
406      125.699 1 2 100 191.594 1.72813
407      125.699 1 2 100 191.594 2.72954
408      125.699 1 2 100 191.594 3.73096
409      125.699 1 2 100 191.594 4.73237
410      125.699 1 2 100 191.594 5.73378
411      125.699 1 2 100 191.594 0.452012
412      125.699 1 2 100 191.594 1.45343
413      125.699 1 2 100 191.594 2.45484
414      125.699 1 2 100 191.594 3.45625
415      125.699 1 2 100 191.594 4.45767
416      125.699 1 2 100 223.526 0
417      125.699 1 2 100 223.526 2.21551
418      125.699 1 2 100 223.526 4.43103
419      125.699 1 2 100 223.526 0.363357
420      125.699 1 2 100 223.526 2.57887
421      125.699 1 2 100 223.526 4.79438
422      125.699 1 2 100 223.526 0.726713
423      125.699 1 2 100 223.526 2.94223
424      125.699 1 2 100 223.526 5.15774
425      125.699 1 2 100 223.526 1.09007
426      125.699 1 2 100 223.526 3.30558
427      125.699 1 2 100 223.526 5.5211
428      125.699 1 2 100 223.526 1.45343
429      125.699 1 2 100 223.526 3.66894
430      125.699 1 2 100 223.526 5.88445
431      125.699 1 2 100 223.526 1.81678
432      125.699 1 2 100 223.526 4.0323
433      125.699 1 2 100 223.526 6.24781
434      125.699 1 2 100 255.458 0
435      125.699 1 2 100 255.458 3.42961
436      125.699 1 2 100 255.458 0.576042
437      125.699 1 2 100 255.458 4.00566
438      125.699 1 2 100 255.458 1.15208
439      125.699 1 2 100 255.458 4.5817
440      125.699 1 2 100 255.458 1.72813
441      125.699 1 2 100 255.458 5.15774
442      125.699 1 2 100 255.458 2.30417
443      125.699 1 2 100 255.458 5.73378
444      125.699 1 2 100 255.458 2.88021
445      125.699 1 2 100 255.458 0.0266407
446      125.699 1 2 100 255.458 3.45625
447      125.699 1 2 100 255.458 0.602683
448      125.699 1 2 100 255.458 4.0323
449      125.699 1 2 100 255.458 1.17873
450      125.699 1 2 100 255.458 4.60834
451      125.699 1 2 100 255.458 1.75477
452      125.699 1 2 100 287.391 0
453      125.699 1 2 100 287.391 4.64371
454      125.699 1 2 100 287.391 3.00424
455      125.699 1 2 100 287.391 1.36477
456      125.699 1 2 100 287.391 6.00848
457      125.699 1 2 100 287.391 4.36901
458      125.699 1 2 100 287.391 2.72954
459      125.699 1 2 100 287.391 1.09007
460      125.699 1 2 100 287.391 5.73378
461      125.699 1 2 100 287.391 4.09431
462      125.699 1 2 100 287.391 2.45484
463      125.699 1 2 100 287.391 0.815369
464      125.699 1 2 100 287.391 5.45908
465      125.699 1 2 100 287.391 3.81961
466      125.699 1 2 100 287.391 2.18014
467      125.699 1 2 100 287.391 0.540668
468      125.699 1 2 100 287.391 5.18438
469      125.699 1 2 100 287.391 3.54491
470      125.699 1 2 100 319.323 0
471      125.699 1 2 100 319.323 5.85781
472      125.699 1 2 100 319.323 5.43244
473      125.699 1 2 100 319.323 5.00707
474      125.699 1 2 100 319.323 4.5817
475      125.699 1 2 100 319.323 4.15633
476      125.699 1 2 100 319.323 3.73096
477      125.699 1 2 100 319.323 3.30558
478      125.699 1 2 100 319.323 2.88021
479      125.699 1 2 100 319.323 2.45484
480      125.699 1 2 100 319.323 2.02947
481      125.699 1 2 100 319.323 1.6041
482      125.699 1 2 100 319.323 1.17873
483      125.699 1 2 100 319.323 0.753354
484      125.699 1 2 100 319.323 0.327982
485      125.699 1 2 100 319.323 6.1858
486      125.699 1 2 100 319.323 5.76042
487      125.699 1 2 100 319.323 5.33505
