# Pulseq sequence file
# Created by MATLAB mr toolbox

# Created for Pulseq-CEST
# https://pulseq-cest.github.io/
# Created by: Clemens Stilianu
# Created at: 25-Sep-2025 17:45:21

[VERSION]
major 1
minor 3
revision 1

[DEFINITIONS]
B0 2.89509447 
B1pa 1 
B1rms 0.986292947 
DCsat 0.909090909 
FREQ 123.2627 
M0_offset -300 
Trec 3.5 
Trec_M0 3.5 
Tsat 1.09 
n_pulses 10 
num_meas 34 
offsets_ppm -5 -4.9 -4.8 -4.7 -4.6 -4.5 -4.4 -4.3 -4.2 -4.1 -4 -3.9 -3.8 -3.7 -3.6 -3.5 -3.4 -3.3 -3.2 -3.1 -3 -2.9 -2.8 -2.7 -2.6 -2.5 -2.4 -2.3 -2.2 -2.1 -2 -1.9 -1.8 -1.7 -1.6 -1.5 -1.4 -1.3 -1.2 -1.1 -1 -0.9 -0.8 -0.7 -0.6 -0.5 -0.4 -0.3 -0.2 -0.1 0 0.1 0.2 0.3 0.4 0.5 0.6 0.7 0.8 0.9 1 1.1 1.2 1.3 1.4 1.5 1.6 1.7 1.8 1.9 2 2.1 2.2 2.3 2.4 2.5 2.6 2.7 2.8 2.9 3 3.1 3.2 3.3 3.4 3.5 3.6 3.7 3.8 3.9 4 4.1 4.2 4.3 4.4 4.5 4.6 4.7 4.8 4.9 5 
seq_id_string OC_minimal 
spoiling 1 
td 0.01 
tp 0.1 

# Format of blocks:
#  #  D RF  GX  GY  GZ ADC EXT
[BLOCKS]
   1  1  0   0   0   0  0  0
   2  0  1   0   0   0  0  0
   3  2  0   0   0   0  0  0
   4  0  2   0   0   0  0  0
   5  2  0   0   0   0  0  0
   6  0  3   0   0   0  0  0
   7  2  0   0   0   0  0  0
   8  0  4   0   0   0  0  0
   9  2  0   0   0   0  0  0
  10  0  5   0   0   0  0  0
  11  2  0   0   0   0  0  0
  12  0  6   0   0   0  0  0
  13  2  0   0   0   0  0  0
  14  0  7   0   0   0  0  0
  15  2  0   0   0   0  0  0
  16  0  8   0   0   0  0  0
  17  2  0   0   0   0  0  0
  18  0  9   0   0   0  0  0
  19  2  0   0   0   0  0  0
  20  0 10   0   0   0  0  0
  21  0  0   1   1   1  0  0
  22  0  0   0   0   0  1  0
  23  1  0   0   0   0  0  0
  24  0 11   0   0   0  0  0
  25  2  0   0   0   0  0  0
  26  0 12   0   0   0  0  0
  27  2  0   0   0   0  0  0
  28  0 13   0   0   0  0  0
  29  2  0   0   0   0  0  0
  30  0 14   0   0   0  0  0
  31  2  0   0   0   0  0  0
  32  0 15   0   0   0  0  0
  33  2  0   0   0   0  0  0
  34  0 16   0   0   0  0  0
  35  2  0   0   0   0  0  0
  36  0 17   0   0   0  0  0
  37  2  0   0   0   0  0  0
  38  0 18   0   0   0  0  0
  39  2  0   0   0   0  0  0
  40  0 19   0   0   0  0  0
  41  2  0   0   0   0  0  0
  42  0 20   0   0   0  0  0
  43  0  0   1   1   1  0  0
  44  0  0   0   0   0  1  0
  45  1  0   0   0   0  0  0
  46  0 21   0   0   0  0  0
  47  2  0   0   0   0  0  0
  48  0 22   0   0   0  0  0
  49  2  0   0   0   0  0  0
  50  0 23   0   0   0  0  0
  51  2  0   0   0   0  0  0
  52  0 24   0   0   0  0  0
  53  2  0   0   0   0  0  0
  54  0 25   0   0   0  0  0
  55  2  0   0   0   0  0  0
  56  0 26   0   0   0  0  0
  57  2  0   0   0   0  0  0
  58  0 27   0   0   0  0  0
  59  2  0   0   0   0  0  0
  60  0 28   0   0   0  0  0
  61  2  0   0   0   0  0  0
  62  0 29   0   0   0  0  0
  63  2  0   0   0   0  0  0
  64  0 30   0   0   0  0  0
  65  0  0   1   1   1  0  0
  66  0  0   0   0   0  1  0
  67  1  0   0   0   0  0  0
  68  0 31   0   0   0  0  0
  69  2  0   0   0   0  0  0
  70  0 32   0   0   0  0  0
  71  2  0   0   0   0  0  0
  72  0 33   0   0   0  0  0
  73  2  0   0   0   0  0  0
  74  0 34   0   0   0  0  0
  75  2  0   0   0   0  0  0
  76  0 35   0   0   0  0  0
  77  2  0   0   0   0  0  0
  78  0 36   0   0   0  0  0
  79  2  0   0   0   0  0  0
  80  0 37   0   0   0  0  0
  81  2  0   0   0   0  0  0
  82  0 38   0   0   0  0  0
  83  2  0   0   0   0  0  0
  84  0 39   0   0   0  0  0
  85  2  0   0   0   0  0  0
  86  0 40   0   0   0  0  0
  87  0  0   1   1   1  0  0
  88  0  0   0   0   0  1  0
  89  1  0   0   0   0  0  0
  90  0 41   0   0   0  0  0
  91  2  0   0   0   0  0  0
  92  0 42   0   0   0  0  0
  93  2  0   0   0   0  0  0
  94  0 43   0   0   0  0  0
  95  2  0   0   0   0  0  0
  96  0 44   0   0   0  0  0
  97  2  0   0   0   0  0  0
  98  0 45   0   0   0  0  0
  99  2  0   0   0   0  0  0
 100  0 46   0   0   0  0  0
 101  2  0   0   0   0  0  0
 102  0 47   0   0   0  0  0
 103  2  0   0   0   0  0  0
 104  0 48   0   0   0  0  0
 105  2  0   0   0   0  0  0
 106  0 49   0   0   0  0  0
 107  2  0   0   0   0  0  0
 108  0 50   0   0   0  0  0
 109  0  0   1   1   1  0  0
 110  0  0   0   0   0  1  0
 111  1  0   0   0   0  0  0
 112  0 51   0   0   0  0  0
 113  2  0   0   0   0  0  0
 114  0 52   0   0   0  0  0
 115  2  0   0   0   0  0  0
 116  0 53   0   0   0  0  0
 117  2  0   0   0   0  0  0
 118  0 54   0   0   0  0  0
 119  2  0   0   0   0  0  0
 120  0 55   0   0   0  0  0
 121  2  0   0   0   0  0  0
 122  0 56   0   0   0  0  0
 123  2  0   0   0   0  0  0
 124  0 57   0   0   0  0  0
 125  2  0   0   0   0  0  0
 126  0 58   0   0   0  0  0
 127  2  0   0   0   0  0  0
 128  0 59   0   0   0  0  0
 129  2  0   0   0   0  0  0
 130  0 60   0   0   0  0  0
 131  0  0   1   1   1  0  0
 132  0  0   0   0   0  1  0
 133  1  0   0   0   0  0  0
 134  0 61   0   0   0  0  0
 135  2  0   0   0   0  0  0
 136  0 62   0   0   0  0  0
 137  2  0   0   0   0  0  0
 138  0 63   0   0   0  0  0
 139  2  0   0   0   0  0  0
 140  0 64   0   0   0  0  0
 141  2  0   0   0   0  0  0
 142  0 65   0   0   0  0  0
 143  2  0   0   0   0  0  0
 144  0 66   0   0   0  0  0
 145  2  0   0   0   0  0  0
 146  0 67   0   0   0  0  0
 147  2  0   0   0   0  0  0
 148  0 68   0   0   0  0  0
 149  2  0   0   0   0  0  0
 150  0 69   0   0   0  0  0
 151  2  0   0   0   0  0  0
 152  0 70   0   0   0  0  0
 153  0  0   1   1   1  0  0
 154  0  0   0   0   0  1  0
 155  1  0   0   0   0  0  0
 156  0 71   0   0   0  0  0
 157  2  0   0   0   0  0  0
 158  0 72   0   0   0  0  0
 159  2  0   0   0   0  0  0
 160  0 73   0   0   0  0  0
 161  2  0   0   0   0  0  0
 162  0 74   0   0   0  0  0
 163  2  0   0   0   0  0  0
 164  0 75   0   0   0  0  0
 165  2  0   0   0   0  0  0
 166  0 76   0   0   0  0  0
 167  2  0   0   0   0  0  0
 168  0 77   0   0   0  0  0
 169  2  0   0   0   0  0  0
 170  0 78   0   0   0  0  0
 171  2  0   0   0   0  0  0
 172  0 79   0   0   0  0  0
 173  2  0   0   0   0  0  0
 174  0 80   0   0   0  0  0
 175  0  0   1   1   1  0  0
 176  0  0   0   0   0  1  0
 177  1  0   0   0   0  0  0
 178  0 81   0   0   0  0  0
 179  2  0   0   0   0  0  0
 180  0 82   0   0   0  0  0
 181  2  0   0   0   0  0  0
 182  0 83   0   0   0  0  0
 183  2  0   0   0   0  0  0
 184  0 84   0   0   0  0  0
 185  2  0   0   0   0  0  0
 186  0 85   0   0   0  0  0
 187  2  0   0   0   0  0  0
 188  0 86   0   0   0  0  0
 189  2  0   0   0   0  0  0
 190  0 87   0   0   0  0  0
 191  2  0   0   0   0  0  0
 192  0 88   0   0   0  0  0
 193  2  0   0   0   0  0  0
 194  0 89   0   0   0  0  0
 195  2  0   0   0   0  0  0
 196  0 90   0   0   0  0  0
 197  0  0   1   1   1  0  0
 198  0  0   0   0   0  1  0
 199  1  0   0   0   0  0  0
 200  0 91   0   0   0  0  0
 201  2  0   0   0   0  0  0
 202  0 92   0   0   0  0  0
 203  2  0   0   0   0  0  0
 204  0 93   0   0   0  0  0
 205  2  0   0   0   0  0  0
 206  0 94   0   0   0  0  0
 207  2  0   0   0   0  0  0
 208  0 95   0   0   0  0  0
 209  2  0   0   0   0  0  0
 210  0 96   0   0   0  0  0
 211  2  0   0   0   0  0  0
 212  0 97   0   0   0  0  0
 213  2  0   0   0   0  0  0
 214  0 98   0   0   0  0  0
 215  2  0   0   0   0  0  0
 216  0 99   0   0   0  0  0
 217  2  0   0   0   0  0  0
 218  0 100   0   0   0  0  0
 219  0  0   1   1   1  0  0
 220  0  0   0   0   0  1  0
 221  1  0   0   0   0  0  0
 222  0 101   0   0   0  0  0
 223  2  0   0   0   0  0  0
 224  0 102   0   0   0  0  0
 225  2  0   0   0   0  0  0
 226  0 103   0   0   0  0  0
 227  2  0   0   0   0  0  0
 228  0 104   0   0   0  0  0
 229  2  0   0   0   0  0  0
 230  0 105   0   0   0  0  0
 231  2  0   0   0   0  0  0
 232  0 106   0   0   0  0  0
 233  2  0   0   0   0  0  0
 234  0 107   0   0   0  0  0
 235  2  0   0   0   0  0  0
 236  0 108   0   0   0  0  0
 237  2  0   0   0   0  0  0
 238  0 109   0   0   0  0  0
 239  2  0   0   0   0  0  0
 240  0 110   0   0   0  0  0
 241  0  0   1   1   1  0  0
 242  0  0   0   0   0  1  0
 243  1  0   0   0   0  0  0
 244  0 111   0   0   0  0  0
 245  2  0   0   0   0  0  0
 246  0 112   0   0   0  0  0
 247  2  0   0   0   0  0  0
 248  0 113   0   0   0  0  0
 249  2  0   0   0   0  0  0
 250  0 114   0   0   0  0  0
 251  2  0   0   0   0  0  0
 252  0 115   0   0   0  0  0
 253  2  0   0   0   0  0  0
 254  0 116   0   0   0  0  0
 255  2  0   0   0   0  0  0
 256  0 117   0   0   0  0  0
 257  2  0   0   0   0  0  0
 258  0 118   0   0   0  0  0
 259  2  0   0   0   0  0  0
 260  0 119   0   0   0  0  0
 261  2  0   0   0   0  0  0
 262  0 120   0   0   0  0  0
 263  0  0   1   1   1  0  0
 264  0  0   0   0   0  1  0
 265  1  0   0   0   0  0  0
 266  0 121   0   0   0  0  0
 267  2  0   0   0   0  0  0
 268  0 122   0   0   0  0  0
 269  2  0   0   0   0  0  0
 270  0 123   0   0   0  0  0
 271  2  0   0   0   0  0  0
 272  0 124   0   0   0  0  0
 273  2  0   0   0   0  0  0
 274  0 125   0   0   0  0  0
 275  2  0   0   0   0  0  0
 276  0 126   0   0   0  0  0
 277  2  0   0   0   0  0  0
 278  0 127   0   0   0  0  0
 279  2  0   0   0   0  0  0
 280  0 128   0   0   0  0  0
 281  2  0   0   0   0  0  0
 282  0 129   0   0   0  0  0
 283  2  0   0   0   0  0  0
 284  0 130   0   0   0  0  0
 285  0  0   1   1   1  0  0
 286  0  0   0   0   0  1  0
 287  1  0   0   0   0  0  0
 288  0 131   0   0   0  0  0
 289  2  0   0   0   0  0  0
 290  0 132   0   0   0  0  0
 291  2  0   0   0   0  0  0
 292  0 133   0   0   0  0  0
 293  2  0   0   0   0  0  0
 294  0 134   0   0   0  0  0
 295  2  0   0   0   0  0  0
 296  0 135   0   0   0  0  0
 297  2  0   0   0   0  0  0
 298  0 136   0   0   0  0  0
 299  2  0   0   0   0  0  0
 300  0 137   0   0   0  0  0
 301  2  0   0   0   0  0  0
 302  0 138   0   0   0  0  0
 303  2  0   0   0   0  0  0
 304  0 139   0   0   0  0  0
 305  2  0   0   0   0  0  0
 306  0 140   0   0   0  0  0
 307  0  0   1   1   1  0  0
 308  0  0   0   0   0  1  0
 309  1  0   0   0   0  0  0
 310  0 141   0   0   0  0  0
[RF]
1      59.4586 1 2 100 -616.313 0
2      59.4586 1 2 100 -616.313 2.3163
3      59.4586 1 2 100 -616.313 4.63259
4      59.4586 1 2 100 -616.313 0.665703
5      59.4586 1 2 100 -616.313 2.982
6      59.4586 1 2 100 -616.313 5.2983
7      59.4586 1 2 100 -616.313 1.33141
8      59.4586 1 2 100 -616.313 3.6477
9      59.4586 1 2 100 -616.313 5.964
10      59.4586 1 2 100 -616.313 1.99711
11      59.4586 1 2 100 -603.987 0
12      59.4586 1 2 100 -603.987 3.77793
13      59.4586 1 2 100 -603.987 1.27268
14      59.4586 1 2 100 -603.987 5.05062
15      59.4586 1 2 100 -603.987 2.54537
16      59.4586 1 2 100 -603.987 0.0401181
17      59.4586 1 2 100 -603.987 3.81805
18      59.4586 1 2 100 -603.987 1.3128
19      59.4586 1 2 100 -603.987 5.09074
20      59.4586 1 2 100 -603.987 2.58549
21      59.4586 1 2 100 -591.661 0
22      59.4586 1 2 100 -591.661 5.23957
23      59.4586 1 2 100 -591.661 4.19596
24      59.4586 1 2 100 -591.661 3.15235
25      59.4586 1 2 100 -591.661 2.10874
26      59.4586 1 2 100 -591.661 1.06513
27      59.4586 1 2 100 -591.661 0.0215136
28      59.4586 1 2 100 -591.661 5.26109
29      59.4586 1 2 100 -591.661 4.21748
30      59.4586 1 2 100 -591.661 3.17386
31      59.4586 1 2 100 -579.335 0
32      59.4586 1 2 100 -579.335 0.418027
33      59.4586 1 2 100 -579.335 0.836053
34      59.4586 1 2 100 -579.335 1.25408
35      59.4586 1 2 100 -579.335 1.67211
36      59.4586 1 2 100 -579.335 2.09013
37      59.4586 1 2 100 -579.335 2.50816
38      59.4586 1 2 100 -579.335 2.92619
39      59.4586 1 2 100 -579.335 3.34421
40      59.4586 1 2 100 -579.335 3.76224
41      59.4586 1 2 100 -567.008 0
42      59.4586 1 2 100 -567.008 1.87967
43      59.4586 1 2 100 -567.008 3.75933
44      59.4586 1 2 100 -567.008 5.639
45      59.4586 1 2 100 -567.008 1.23548
46      59.4586 1 2 100 -567.008 3.11514
47      59.4586 1 2 100 -567.008 4.99481
48      59.4586 1 2 100 -567.008 0.591285
49      59.4586 1 2 100 -567.008 2.47095
50      59.4586 1 2 100 -567.008 4.35062
51      59.4586 1 2 100 -554.682 0
52      59.4586 1 2 100 -554.682 3.3413
53      59.4586 1 2 100 -554.682 0.399422
54      59.4586 1 2 100 -554.682 3.74073
55      59.4586 1 2 100 -554.682 0.798844
56      59.4586 1 2 100 -554.682 4.14015
57      59.4586 1 2 100 -554.682 1.19827
58      59.4586 1 2 100 -554.682 4.53957
59      59.4586 1 2 100 -554.682 1.59769
60      59.4586 1 2 100 -554.682 4.93899
61      59.4586 1 2 100 -542.356 0
62      59.4586 1 2 100 -542.356 4.80294
63      59.4586 1 2 100 -542.356 3.3227
64      59.4586 1 2 100 -542.356 1.84246
65      59.4586 1 2 100 -542.356 0.362213
66      59.4586 1 2 100 -542.356 5.16516
67      59.4586 1 2 100 -542.356 3.68491
68      59.4586 1 2 100 -542.356 2.20467
69      59.4586 1 2 100 -542.356 0.724426
70      59.4586 1 2 100 -542.356 5.52737
71      59.4586 1 2 100 -530.03 0
72      59.4586 1 2 100 -530.03 6.26458
73      59.4586 1 2 100 -530.03 6.24598
74      59.4586 1 2 100 -530.03 6.22737
75      59.4586 1 2 100 -530.03 6.20877
76      59.4586 1 2 100 -530.03 6.19016
77      59.4586 1 2 100 -530.03 6.17156
78      59.4586 1 2 100 -530.03 6.15295
79      59.4586 1 2 100 -530.03 6.13435
80      59.4586 1 2 100 -530.03 6.11574
81      59.4586 1 2 100 -517.703 0
82      59.4586 1 2 100 -517.703 1.44303
83      59.4586 1 2 100 -517.703 2.88607
84      59.4586 1 2 100 -517.703 4.3291
85      59.4586 1 2 100 -517.703 5.77214
86      59.4586 1 2 100 -517.703 0.931985
87      59.4586 1 2 100 -517.703 2.37502
88      59.4586 1 2 100 -517.703 3.81805
89      59.4586 1 2 100 -517.703 5.26109
90      59.4586 1 2 100 -517.703 0.420936
91      59.4586 1 2 100 -505.377 0
92      59.4586 1 2 100 -505.377 2.90467
93      59.4586 1 2 100 -505.377 5.80935
94      59.4586 1 2 100 -505.377 2.43083
95      59.4586 1 2 100 -505.377 5.33551
96      59.4586 1 2 100 -505.377 1.95699
97      59.4586 1 2 100 -505.377 4.86166
98      59.4586 1 2 100 -505.377 1.48315
99      59.4586 1 2 100 -505.377 4.38782
100      59.4586 1 2 100 -505.377 1.00931
101      59.4586 1 2 100 -493.051 0
102      59.4586 1 2 100 -493.051 4.36631
103      59.4586 1 2 100 -493.051 2.44944
104      59.4586 1 2 100 -493.051 0.532563
105      59.4586 1 2 100 -493.051 4.89887
106      59.4586 1 2 100 -493.051 2.982
107      59.4586 1 2 100 -493.051 1.06513
108      59.4586 1 2 100 -493.051 5.43144
109      59.4586 1 2 100 -493.051 3.51456
110      59.4586 1 2 100 -493.051 1.59769
111      59.4586 1 2 100 -480.725 0
112      59.4586 1 2 100 -480.725 5.82795
113      59.4586 1 2 100 -480.725 5.37271
114      59.4586 1 2 100 -480.725 4.91748
115      59.4586 1 2 100 -480.725 4.46224
116      59.4586 1 2 100 -480.725 4.00701
117      59.4586 1 2 100 -480.725 3.55177
118      59.4586 1 2 100 -480.725 3.09654
119      59.4586 1 2 100 -480.725 2.6413
120      59.4586 1 2 100 -480.725 2.18606
121      59.4586 1 2 100 -468.398 0
122      59.4586 1 2 100 -468.398 1.0064
123      59.4586 1 2 100 -468.398 2.01281
124      59.4586 1 2 100 -468.398 3.01921
125      59.4586 1 2 100 -468.398 4.02561
126      59.4586 1 2 100 -468.398 5.03201
127      59.4586 1 2 100 -468.398 6.03842
128      59.4586 1 2 100 -468.398 0.761635
129      59.4586 1 2 100 -468.398 1.76804
130      59.4586 1 2 100 -468.398 2.77444
131      59.4586 1 2 100 -456.072 0
132      59.4586 1 2 100 -456.072 2.46804
133      59.4586 1 2 100 -456.072 4.93608
134      59.4586 1 2 100 -456.072 1.12094
135      59.4586 1 2 100 -456.072 3.58898
136      59.4586 1 2 100 -456.072 6.05702
137      59.4586 1 2 100 -456.072 2.24188
138      59.4586 1 2 100 -456.072 4.70992
139      59.4586 1 2 100 -456.072 0.894776
140      59.4586 1 2 100 -456.072 3.36282
141      59.4586 1 2 100 -443.746 0
142      59.4586 1 2 100 -443.746 3.92968
143      59.4586 1 2 100 -443.746 1.57617
144      59.4586 1 2 100 -443.746 5.50585
145      59.4586 1 2 100 -443.746 3.15235
146      59.4586 1 2 100 -443.746 0.798844
147      59.4586 1 2 100 -443.746 4.72852
148      59.4586 1 2 100 -443.746 2.37502
149      59.4586 1 2 100 -443.746 0.0215136
150      59.4586 1 2 100 -443.746 3.95119
151      59.4586 1 2 100 -431.419 0
152      59.4586 1 2 100 -431.419 5.39132
153      59.4586 1 2 100 -431.419 4.49945
154      59.4586 1 2 100 -431.419 3.60759
155      59.4586 1 2 100 -431.419 2.71572
156      59.4586 1 2 100 -431.419 1.82385
157      59.4586 1 2 100 -431.419 0.931985
158      59.4586 1 2 100 -431.419 0.0401181
159      59.4586 1 2 100 -431.419 5.43144
160      59.4586 1 2 100 -431.419 4.53957
161      59.4586 1 2 100 -419.093 0
162      59.4586 1 2 100 -419.093 0.569772
163      59.4586 1 2 100 -419.093 1.13954
164      59.4586 1 2 100 -419.093 1.70932
165      59.4586 1 2 100 -419.093 2.27909
166      59.4586 1 2 100 -419.093 2.84886
167      59.4586 1 2 100 -419.093 3.41863
168      59.4586 1 2 100 -419.093 3.9884
169      59.4586 1 2 100 -419.093 4.55817
170      59.4586 1 2 100 -419.093 5.12795
171      59.4586 1 2 100 -406.767 0
172      59.4586 1 2 100 -406.767 2.03141
173      59.4586 1 2 100 -406.767 4.06282
174      59.4586 1 2 100 -406.767 6.09423
175      59.4586 1 2 100 -406.767 1.84246
176      59.4586 1 2 100 -406.767 3.87387
177      59.4586 1 2 100 -406.767 5.90528
178      59.4586 1 2 100 -406.767 1.6535
179      59.4586 1 2 100 -406.767 3.68491
180      59.4586 1 2 100 -406.767 5.71632
181      59.4586 1 2 100 -394.441 0
182      59.4586 1 2 100 -394.441 3.49305
183      59.4586 1 2 100 -394.441 0.702913
184      59.4586 1 2 100 -394.441 4.19596
185      59.4586 1 2 100 -394.441 1.40583
186      59.4586 1 2 100 -394.441 4.89887
187      59.4586 1 2 100 -394.441 2.10874
188      59.4586 1 2 100 -394.441 5.60179
189      59.4586 1 2 100 -394.441 2.81165
190      59.4586 1 2 100 -394.441 0.0215136
191      59.4586 1 2 100 -382.114 0
192      59.4586 1 2 100 -382.114 4.95469
193      59.4586 1 2 100 -382.114 3.62619
194      59.4586 1 2 100 -382.114 2.29769
195      59.4586 1 2 100 -382.114 0.969194
196      59.4586 1 2 100 -382.114 5.92388
197      59.4586 1 2 100 -382.114 4.59538
198      59.4586 1 2 100 -382.114 3.26689
199      59.4586 1 2 100 -382.114 1.93839
200      59.4586 1 2 100 -382.114 0.60989
201      59.4586 1 2 100 -369.788 0
202      59.4586 1 2 100 -369.788 0.133141
203      59.4586 1 2 100 -369.788 0.266281
204      59.4586 1 2 100 -369.788 0.399422
205      59.4586 1 2 100 -369.788 0.532563
206      59.4586 1 2 100 -369.788 0.665703
207      59.4586 1 2 100 -369.788 0.798844
208      59.4586 1 2 100 -369.788 0.931985
209      59.4586 1 2 100 -369.788 1.06513
210      59.4586 1 2 100 -369.788 1.19827
211      59.4586 1 2 100 -357.462 0
212      59.4586 1 2 100 -357.462 1.59478
213      59.4586 1 2 100 -357.462 3.18956
214      59.4586 1 2 100 -357.462 4.78434
215      59.4586 1 2 100 -357.462 0.0959317
216      59.4586 1 2 100 -357.462 1.69071
217      59.4586 1 2 100 -357.462 3.28549
218      59.4586 1 2 100 -357.462 4.88027
219      59.4586 1 2 100 -357.462 0.191863
220      59.4586 1 2 100 -357.462 1.78664
221      59.4586 1 2 100 -345.136 0
222      59.4586 1 2 100 -345.136 3.05642
223      59.4586 1 2 100 -345.136 6.11284
224      59.4586 1 2 100 -345.136 2.88607
225      59.4586 1 2 100 -345.136 5.94249
226      59.4586 1 2 100 -345.136 2.71572
227      59.4586 1 2 100 -345.136 5.77214
228      59.4586 1 2 100 -345.136 2.54537
229      59.4586 1 2 100 -345.136 5.60179
230      59.4586 1 2 100 -345.136 2.37502
231      59.4586 1 2 100 -332.809 0
232      59.4586 1 2 100 -332.809 4.51806
233      59.4586 1 2 100 -332.809 2.75293
234      59.4586 1 2 100 -332.809 0.987798
235      59.4586 1 2 100 -332.809 5.50585
236      59.4586 1 2 100 -332.809 3.74073
237      59.4586 1 2 100 -332.809 1.9756
238      59.4586 1 2 100 -332.809 0.210468
239      59.4586 1 2 100 -332.809 4.72852
240      59.4586 1 2 100 -332.809 2.9634
241      59.4586 1 2 100 -320.483 0
242      59.4586 1 2 100 -320.483 5.97969
243      59.4586 1 2 100 -320.483 5.6762
244      59.4586 1 2 100 -320.483 5.37271
245      59.4586 1 2 100 -320.483 5.06922
246      59.4586 1 2 100 -320.483 4.76573
247      59.4586 1 2 100 -320.483 4.46224
248      59.4586 1 2 100 -320.483 4.15875
249      59.4586 1 2 100 -320.483 3.85526
250      59.4586 1 2 100 -320.483 3.55177
251      59.4586 1 2 100 -308.157 0
252      59.4586 1 2 100 -308.157 1.15815
253      59.4586 1 2 100 -308.157 2.3163
254      59.4586 1 2 100 -308.157 3.47444
255      59.4586 1 2 100 -308.157 4.63259
256      59.4586 1 2 100 -308.157 5.79074
257      59.4586 1 2 100 -308.157 0.665703
258      59.4586 1 2 100 -308.157 1.82385
259      59.4586 1 2 100 -308.157 2.982
260      59.4586 1 2 100 -308.157 4.14015
261      59.4586 1 2 100 -295.83 0
262      59.4586 1 2 100 -295.83 2.61979
263      59.4586 1 2 100 -295.83 5.23957
264      59.4586 1 2 100 -295.83 1.57617
265      59.4586 1 2 100 -295.83 4.19596
266      59.4586 1 2 100 -295.83 0.532563
267      59.4586 1 2 100 -295.83 3.15235
268      59.4586 1 2 100 -295.83 5.77214
269      59.4586 1 2 100 -295.83 2.10874
270      59.4586 1 2 100 -295.83 4.72852
271      59.4586 1 2 100 -283.504 0
272      59.4586 1 2 100 -283.504 4.08143
273      59.4586 1 2 100 -283.504 1.87967
274      59.4586 1 2 100 -283.504 5.96109
275      59.4586 1 2 100 -283.504 3.75933
276      59.4586 1 2 100 -283.504 1.55757
277      59.4586 1 2 100 -283.504 5.639
278      59.4586 1 2 100 -283.504 3.43724
279      59.4586 1 2 100 -283.504 1.23548
280      59.4586 1 2 100 -283.504 5.3169
281      59.4586 1 2 100 -271.178 0
282      59.4586 1 2 100 -271.178 5.54306
283      59.4586 1 2 100 -271.178 4.80294
284      59.4586 1 2 100 -271.178 4.06282
285      59.4586 1 2 100 -271.178 3.3227
286      59.4586 1 2 100 -271.178 2.58258
287      59.4586 1 2 100 -271.178 1.84246
288      59.4586 1 2 100 -271.178 1.10233
289      59.4586 1 2 100 -271.178 0.362213
290      59.4586 1 2 100 -271.178 5.90528
291      59.4586 1 2 100 -258.852 0
292      59.4586 1 2 100 -258.852 0.721517
293      59.4586 1 2 100 -258.852 1.44303
294      59.4586 1 2 100 -258.852 2.16455
295      59.4586 1 2 100 -258.852 2.88607
296      59.4586 1 2 100 -258.852 3.60759
297      59.4586 1 2 100 -258.852 4.3291
298      59.4586 1 2 100 -258.852 5.05062
299      59.4586 1 2 100 -258.852 5.77214
300      59.4586 1 2 100 -258.852 0.210468
301      59.4586 1 2 100 -246.525 0
302      59.4586 1 2 100 -246.525 2.18316
303      59.4586 1 2 100 -246.525 4.36631
304      59.4586 1 2 100 -246.525 0.266281
305      59.4586 1 2 100 -246.525 2.44944
306      59.4586 1 2 100 -246.525 4.63259
307      59.4586 1 2 100 -246.525 0.532563
308      59.4586 1 2 100 -246.525 2.71572
309      59.4586 1 2 100 -246.525 4.89887
310      59.4586 1 2 100 -246.525 0.798844
311      59.4586 1 2 100 -234.199 0
312      59.4586 1 2 100 -234.199 3.64479
313      59.4586 1 2 100 -234.199 1.0064
314      59.4586 1 2 100 -234.199 4.6512
315      59.4586 1 2 100 -234.199 2.01281
316      59.4586 1 2 100 -234.199 5.6576
317      59.4586 1 2 100 -234.199 3.01921
318      59.4586 1 2 100 -234.199 0.380818
319      59.4586 1 2 100 -234.199 4.02561
320      59.4586 1 2 100 -234.199 1.38722
321      59.4586 1 2 100 -221.873 0
322      59.4586 1 2 100 -221.873 5.10643
323      59.4586 1 2 100 -221.873 3.92968
324      59.4586 1 2 100 -221.873 2.75293
325      59.4586 1 2 100 -221.873 1.57617
326      59.4586 1 2 100 -221.873 0.399422
327      59.4586 1 2 100 -221.873 5.50585
328      59.4586 1 2 100 -221.873 4.3291
329      59.4586 1 2 100 -221.873 3.15235
330      59.4586 1 2 100 -221.873 1.9756
331      59.4586 1 2 100 -209.547 0
332      59.4586 1 2 100 -209.547 0.284886
333      59.4586 1 2 100 -209.547 0.569772
334      59.4586 1 2 100 -209.547 0.854658
335      59.4586 1 2 100 -209.547 1.13954
336      59.4586 1 2 100 -209.547 1.42443
337      59.4586 1 2 100 -209.547 1.70932
338      59.4586 1 2 100 -209.547 1.9942
339      59.4586 1 2 100 -209.547 2.27909
340      59.4586 1 2 100 -209.547 2.56397
341      59.4586 1 2 100 -197.22 0
342      59.4586 1 2 100 -197.22 1.74652
343      59.4586 1 2 100 -197.22 3.49305
344      59.4586 1 2 100 -197.22 5.23957
345      59.4586 1 2 100 -197.22 0.702913
346      59.4586 1 2 100 -197.22 2.44944
347      59.4586 1 2 100 -197.22 4.19596
348      59.4586 1 2 100 -197.22 5.94249
349      59.4586 1 2 100 -197.22 1.40583
350      59.4586 1 2 100 -197.22 3.15235
351      59.4586 1 2 100 -184.894 0
352      59.4586 1 2 100 -184.894 3.20816
353      59.4586 1 2 100 -184.894 0.133141
354      59.4586 1 2 100 -184.894 3.3413
355      59.4586 1 2 100 -184.894 0.266281
356      59.4586 1 2 100 -184.894 3.47444
357      59.4586 1 2 100 -184.894 0.399422
358      59.4586 1 2 100 -184.894 3.60759
359      59.4586 1 2 100 -184.894 0.532563
360      59.4586 1 2 100 -184.894 3.74073
361      59.4586 1 2 100 -172.568 0
362      59.4586 1 2 100 -172.568 4.6698
363      59.4586 1 2 100 -172.568 3.05642
364      59.4586 1 2 100 -172.568 1.44303
365      59.4586 1 2 100 -172.568 6.11284
366      59.4586 1 2 100 -172.568 4.49945
367      59.4586 1 2 100 -172.568 2.88607
368      59.4586 1 2 100 -172.568 1.27268
369      59.4586 1 2 100 -172.568 5.94249
370      59.4586 1 2 100 -172.568 4.3291
371      59.4586 1 2 100 -160.242 0
372      59.4586 1 2 100 -160.242 6.13144
373      59.4586 1 2 100 -160.242 5.97969
374      59.4586 1 2 100 -160.242 5.82795
375      59.4586 1 2 100 -160.242 5.6762
376      59.4586 1 2 100 -160.242 5.52446
377      59.4586 1 2 100 -160.242 5.37271
378      59.4586 1 2 100 -160.242 5.22097
379      59.4586 1 2 100 -160.242 5.06922
380      59.4586 1 2 100 -160.242 4.91748
381      59.4586 1 2 100 -147.915 0
382      59.4586 1 2 100 -147.915 1.30989
383      59.4586 1 2 100 -147.915 2.61979
384      59.4586 1 2 100 -147.915 3.92968
385      59.4586 1 2 100 -147.915 5.23957
386      59.4586 1 2 100 -147.915 0.266281
387      59.4586 1 2 100 -147.915 1.57617
388      59.4586 1 2 100 -147.915 2.88607
389      59.4586 1 2 100 -147.915 4.19596
390      59.4586 1 2 100 -147.915 5.50585
391      59.4586 1 2 100 -135.589 0
392      59.4586 1 2 100 -135.589 2.77153
393      59.4586 1 2 100 -135.589 5.54306
394      59.4586 1 2 100 -135.589 2.03141
395      59.4586 1 2 100 -135.589 4.80294
396      59.4586 1 2 100 -135.589 1.29129
397      59.4586 1 2 100 -135.589 4.06282
398      59.4586 1 2 100 -135.589 0.551167
399      59.4586 1 2 100 -135.589 3.3227
400      59.4586 1 2 100 -135.589 6.09423
401      59.4586 1 2 100 -123.263 0
402      59.4586 1 2 100 -123.263 4.23317
403      59.4586 1 2 100 -123.263 2.18316
404      59.4586 1 2 100 -123.263 0.133141
405      59.4586 1 2 100 -123.263 4.36631
406      59.4586 1 2 100 -123.263 2.3163
407      59.4586 1 2 100 -123.263 0.266281
408      59.4586 1 2 100 -123.263 4.49945
409      59.4586 1 2 100 -123.263 2.44944
410      59.4586 1 2 100 -123.263 0.399422
411      59.4586 1 2 100 -110.936 0
412      59.4586 1 2 100 -110.936 5.69481
413      59.4586 1 2 100 -110.936 5.10643
414      59.4586 1 2 100 -110.936 4.51806
415      59.4586 1 2 100 -110.936 3.92968
416      59.4586 1 2 100 -110.936 3.3413
417      59.4586 1 2 100 -110.936 2.75293
418      59.4586 1 2 100 -110.936 2.16455
419      59.4586 1 2 100 -110.936 1.57617
420      59.4586 1 2 100 -110.936 0.987798
421      59.4586 1 2 100 -98.6102 0
422      59.4586 1 2 100 -98.6102 0.873262
423      59.4586 1 2 100 -98.6102 1.74652
424      59.4586 1 2 100 -98.6102 2.61979
425      59.4586 1 2 100 -98.6102 3.49305
426      59.4586 1 2 100 -98.6102 4.36631
427      59.4586 1 2 100 -98.6102 5.23957
428      59.4586 1 2 100 -98.6102 6.11284
429      59.4586 1 2 100 -98.6102 0.702913
430      59.4586 1 2 100 -98.6102 1.57617
431      59.4586 1 2 100 -86.2839 0
432      59.4586 1 2 100 -86.2839 2.3349
433      59.4586 1 2 100 -86.2839 4.6698
434      59.4586 1 2 100 -86.2839 0.721517
435      59.4586 1 2 100 -86.2839 3.05642
436      59.4586 1 2 100 -86.2839 5.39132
437      59.4586 1 2 100 -86.2839 1.44303
438      59.4586 1 2 100 -86.2839 3.77793
439      59.4586 1 2 100 -86.2839 6.11284
440      59.4586 1 2 100 -86.2839 2.16455
441      59.4586 1 2 100 -73.9576 0
442      59.4586 1 2 100 -73.9576 3.79654
443      59.4586 1 2 100 -73.9576 1.30989
444      59.4586 1 2 100 -73.9576 5.10643
445      59.4586 1 2 100 -73.9576 2.61979
446      59.4586 1 2 100 -73.9576 0.133141
447      59.4586 1 2 100 -73.9576 3.92968
448      59.4586 1 2 100 -73.9576 1.44303
449      59.4586 1 2 100 -73.9576 5.23957
450      59.4586 1 2 100 -73.9576 2.75293
451      59.4586 1 2 100 -61.6313 0
452      59.4586 1 2 100 -61.6313 5.25818
453      59.4586 1 2 100 -61.6313 4.23317
454      59.4586 1 2 100 -61.6313 3.20816
455      59.4586 1 2 100 -61.6313 2.18316
456      59.4586 1 2 100 -61.6313 1.15815
457      59.4586 1 2 100 -61.6313 0.133141
458      59.4586 1 2 100 -61.6313 5.39132
459      59.4586 1 2 100 -61.6313 4.36631
460      59.4586 1 2 100 -61.6313 3.3413
461      59.4586 1 2 100 -49.3051 0
462      59.4586 1 2 100 -49.3051 0.436631
463      59.4586 1 2 100 -49.3051 0.873262
464      59.4586 1 2 100 -49.3051 1.30989
465      59.4586 1 2 100 -49.3051 1.74652
466      59.4586 1 2 100 -49.3051 2.18316
467      59.4586 1 2 100 -49.3051 2.61979
468      59.4586 1 2 100 -49.3051 3.05642
469      59.4586 1 2 100 -49.3051 3.49305
470      59.4586 1 2 100 -49.3051 3.92968
471      59.4586 1 2 100 -36.9788 0
472      59.4586 1 2 100 -36.9788 1.89827
473      59.4586 1 2 100 -36.9788 3.79654
474      59.4586 1 2 100 -36.9788 5.69481
475      59.4586 1 2 100 -36.9788 1.30989
476      59.4586 1 2 100 -36.9788 3.20816
477      59.4586 1 2 100 -36.9788 5.10643
478      59.4586 1 2 100 -36.9788 0.721517
479      59.4586 1 2 100 -36.9788 2.61979
480      59.4586 1 2 100 -36.9788 4.51806
481      59.4586 1 2 100 -24.6525 0
482      59.4586 1 2 100 -24.6525 3.35991
483      59.4586 1 2 100 -24.6525 0.436631
484      59.4586 1 2 100 -24.6525 3.79654
485      59.4586 1 2 100 -24.6525 0.873262
