# Pulseq sequence file
# Created by MATLAB mr toolbox

# Created for Pulseq-CEST
# https://pulseq-cest.github.io/
# Created by: Moritz Zaiss
# Created at: 18-Apr-2023 09:44:32

[VERSION]
major 1
minor 3
revision 1

[DEFINITIONS]
B0 3 
B1pa 2 
B1rms 1.99999975 
DCsat 1 
FREQ 127.7292 
M0_offset -300 
Trec 3.5 
Trec_M0 3.5 
Tsat 2 
n_pulses 1 
num_meas 34 
offsets_ppm -300 -4 -3.75 -3.5 -3.25 -3 -2.75 -2.5 -2.25 -2 -1.75 -1.5 -1.25 -1 -0.75 -0.5 -0.25 0 0.25 0.5 0.75 1 1.25 1.5 1.75 2 2.25 2.5 2.75 3 3.25 3.5 3.75 4 
seq_id_string APTw_3T_000_2uT_1block_2s_braintumor 
spoiling 1 
td 0 
tp 2 

# Format of blocks:
#  #  D RF  GX  GY  GZ ADC EXT
[BLOCKS]
  1  1  0   0   0   0  0  0
  2  0  1   0   0   0  0  0
  3  0  0   1   1   1  0  0
  4  0  0   0   0   0  1  0
  5  1  0   0   0   0  0  0
  6  0  2   0   0   0  0  0
  7  0  0   1   1   1  0  0
  8  0  0   0   0   0  1  0
  9  1  0   0   0   0  0  0
 10  0  3   0   0   0  0  0
 11  0  0   1   1   1  0  0
 12  0  0   0   0   0  1  0
 13  1  0   0   0   0  0  0
 14  0  4   0   0   0  0  0
 15  0  0   1   1   1  0  0
 16  0  0   0   0   0  1  0
 17  1  0   0   0   0  0  0
 18  0  5   0   0   0  0  0
 19  0  0   1   1   1  0  0
 20  0  0   0   0   0  1  0
 21  1  0   0   0   0  0  0
 22  0  6   0   0   0  0  0
 23  0  0   1   1   1  0  0
 24  0  0   0   0   0  1  0
 25  1  0   0   0   0  0  0
 26  0  7   0   0   0  0  0
 27  0  0   1   1   1  0  0
 28  0  0   0   0   0  1  0
 29  1  0   0   0   0  0  0
 30  0  8   0   0   0  0  0
 31  0  0   1   1   1  0  0
 32  0  0   0   0   0  1  0
 33  1  0   0   0   0  0  0
 34  0  9   0   0   0  0  0
 35  0  0   1   1   1  0  0
 36  0  0   0   0   0  1  0
 37  1  0   0   0   0  0  0
 38  0 10   0   0   0  0  0
 39  0  0   1   1   1  0  0
 40  0  0   0   0   0  1  0
 41  1  0   0   0   0  0  0
 42  0 11   0   0   0  0  0
 43  0  0   1   1   1  0  0
 44  0  0   0   0   0  1  0
 45  1  0   0   0   0  0  0
 46  0 12   0   0   0  0  0
 47  0  0   1   1   1  0  0
 48  0  0   0   0   0  1  0
 49  1  0   0   0   0  0  0
 50  0 13   0   0   0  0  0
 51  0  0   1   1   1  0  0
 52  0  0   0   0   0  1  0
 53  1  0   0   0   0  0  0
 54  0 14   0   0   0  0  0
 55  0  0   1   1   1  0  0
 56  0  0   0   0   0  1  0
 57  1  0   0   0   0  0  0
 58  0 15   0   0   0  0  0
 59  0  0   1   1   1  0  0
 60  0  0   0   0   0  1  0
 61  1  0   0   0   0  0  0
 62  0 16   0   0   0  0  0
 63  0  0   1   1   1  0  0
 64  0  0   0   0   0  1  0
 65  1  0   0   0   0  0  0
 66  0 17   0   0   0  0  0
 67  0  0   1   1   1  0  0
 68  0  0   0   0   0  1  0
 69  1  0   0   0   0  0  0
 70  0 18   0   0   0  0  0
 71  0  0   1   1   1  0  0
 72  0  0   0   0   0  1  0
 73  1  0   0   0   0  0  0
 74  0 19   0   0   0  0  0
 75  0  0   1   1   1  0  0
 76  0  0   0   0   0  1  0
 77  1  0   0   0   0  0  0
 78  0 20   0   0   0  0  0
 79  0  0   1   1   1  0  0
 80  0  0   0   0   0  1  0
 81  1  0   0   0   0  0  0
 82  0 21   0   0   0  0  0
 83  0  0   1   1   1  0  0
 84  0  0   0   0   0  1  0
 85  1  0   0   0   0  0  0
 86  0 22   0   0   0  0  0
 87  0  0   1   1   1  0  0
 88  0  0   0   0   0  1  0
 89  1  0   0   0   0  0  0
 90  0 23   0   0   0  0  0
 91  0  0   1   1   1  0  0
 92  0  0   0   0   0  1  0
 93  1  0   0   0   0  0  0
 94  0 24   0   0   0  0  0
 95  0  0   1   1   1  0  0
 96  0  0   0   0   0  1  0
 97  1  0   0   0   0  0  0
 98  0 25   0   0   0  0  0
 99  0  0   1   1   1  0  0
100  0  0   0   0   0  1  0
101  1  0   0   0   0  0  0
102  0 26   0   0   0  0  0
103  0  0   1   1   1  0  0
104  0  0   0   0   0  1  0
105  1  0   0   0   0  0  0
106  0 27   0   0   0  0  0
107  0  0   1   1   1  0  0
108  0  0   0   0   0  1  0
109  1  0   0   0   0  0  0
110  0 28   0   0   0  0  0
111  0  0   1   1   1  0  0
112  0  0   0   0   0  1  0
113  1  0   0   0   0  0  0
114  0 29   0   0   0  0  0
115  0  0   1   1   1  0  0
116  0  0   0   0   0  1  0
117  1  0   0   0   0  0  0
118  0 30   0   0   0  0  0
119  0  0   1   1   1  0  0
120  0  0   0   0   0  1  0
121  1  0   0   0   0  0  0
122  0 31   0   0   0  0  0
123  0  0   1   1   1  0  0
124  0  0   0   0   0  1  0
125  1  0   0   0   0  0  0
126  0 32   0   0   0  0  0
127  0  0   1   1   1  0  0
128  0  0   0   0   0  1  0
129  1  0   0   0   0  0  0
130  0 33   0   0   0  0  0
131  0  0   1   1   1  0  0
132  0  0   0   0   0  1  0
133  1  0   0   0   0  0  0
134  0 34   0   0   0  0  0
135  0  0   1   1   1  0  0
136  0  0   0   0   0  1  0

# Format of RF events:
# id amplitude mag_id phase_id delay freq phase
# ..        Hz   ....     ....    us   Hz   rad
[RF]
1      85.1528 1 2 100 -38318.8 0
2      85.1528 1 2 100 -510.917 0
3      85.1528 1 2 100 -478.985 0
4      85.1528 1 2 100 -447.052 0
5      85.1528 1 2 100 -415.12 0
6      85.1528 1 2 100 -383.188 0
7      85.1528 1 2 100 -351.255 0
8      85.1528 1 2 100 -319.323 0
9      85.1528 1 2 100 -287.391 0
10      85.1528 1 2 100 -255.458 0
11      85.1528 1 2 100 -223.526 0
12      85.1528 1 2 100 -191.594 0
13      85.1528 1 2 100 -159.662 0
14      85.1528 1 2 100 -127.729 0
15      85.1528 1 2 100 -95.7969 0
16      85.1528 1 2 100 -63.8646 0
17      85.1528 1 2 100 -31.9323 0
18      85.1528 1 2 100 0 0
19      85.1528 1 2 100 31.9323 0
20      85.1528 1 2 100 63.8646 0
21      85.1528 1 2 100 95.7969 0
22      85.1528 1 2 100 127.729 0
23      85.1528 1 2 100 159.662 0
24      85.1528 1 2 100 191.594 0
25      85.1528 1 2 100 223.526 0
26      85.1528 1 2 100 255.458 0
27      85.1528 1 2 100 287.391 0
28      85.1528 1 2 100 319.323 0
29      85.1528 1 2 100 351.255 0
30      85.1528 1 2 100 383.188 0
31      85.1528 1 2 100 415.12 0
32      85.1528 1 2 100 447.052 0
33      85.1528 1 2 100 478.985 0
34      85.1528 1 2 100 510.917 0

# Format of trapezoid gradients:
# id amplitude rise flat fall delay
# ..      Hz/m   us   us   us    us
[TRAP]
 1  1.36244e+06 1000 4500 1000   0

# Format of ADC events:
# id num dwell delay freq phase
# ..  ..    ns    us   Hz   rad
[ADC]
1 1 1000000 0 0 0

# Format of delays:
# id delay (us)
[DELAYS]
1 3500000

# Sequence Shapes
[SHAPES]

shape_id 1
num_samples 2000030
1
0
0
1999997
-1
0
0
27

shape_id 2
num_samples 2000030
0
0
2000028

