# Pulseq sequence file
# Created by PyPulseq

[VERSION]
major 1
minor 4
revision 2

[DEFINITIONS]
AdcRasterTime 1e-07 
B0 7 
B1pa 0.378 
B1rms 0.600697076 
BlockDurationRaster 1e-05 
DCsat 0.892857143 
FREQ 298.0348 
GradientRasterTime 1e-05 
M0_offset -1560 
RadiofrequencyRasterTime 1e-06 
Trec 3 
Trec_M0 3 
Tsat 2.234 
n_pulses 40 
num_meas 84 
offsets_ppm -1560 -4.1 -4 -3.9 -3.8 -3.7 -3.6 -3.5 -3.4 -3.3 -3.2 -3.1 -3 -2.9 -2.8 -2.7 -2.6 -2.5 -2.4 -2.3 -2.2 -2.1 -2 -1.9 -1.8 -1.7 -1.6 -1.5 -1.4 -1.3 -1.2 -1.1 -1 -0.9 -0.8 -0.7 -0.6 -0.5 -0.4 -0.3 -0.2 -0.1 3.55271368e-15 0.1 0.2 0.3 0.4 0.5 0.6 0.7 0.8 0.9 1 1.1 1.2 1.3 1.4 1.5 1.6 1.7 1.8 1.9 2 2.1 2.2 2.3 2.4 2.5 2.6 2.7 2.8 2.9 3 3.1 3.2 3.3 3.4 3.5 3.6 3.7 3.8 3.9 4 4.1 
seq_id_string nachbildung_seq_koch_b1rms_0.6mut_trec_3ms_python 
spoiling 1 
td 0.006 
tp 0.05 

# Format of blocks:
# NUM DUR RF  GX  GY  GZ  ADC  EXT
[BLOCKS]
   1 300000   0   0   0   0  0  0
   2 5013   1   0   0   0  0  0
   3 600   0   0   0   0  0  0
   4 5013   2   0   0   0  0  0
   5 600   0   0   0   0  0  0
   6 5013   3   0   0   0  0  0
   7 600   0   0   0   0  0  0
   8 5013   4   0   0   0  0  0
   9 600   0   0   0   0  0  0
  10 5013   5   0   0   0  0  0
  11 600   0   0   0   0  0  0
  12 5013   6   0   0   0  0  0
  13 600   0   0   0   0  0  0
  14 5013   7   0   0   0  0  0
  15 600   0   0   0   0  0  0
  16 5013   8   0   0   0  0  0
  17 600   0   0   0   0  0  0
  18 5013   9   0   0   0  0  0
  19 600   0   0   0   0  0  0
  20 5013  10   0   0   0  0  0
  21 600   0   0   0   0  0  0
  22 5013  11   0   0   0  0  0
  23 600   0   0   0   0  0  0
  24 5013  12   0   0   0  0  0
  25 600   0   0   0   0  0  0
  26 5013  13   0   0   0  0  0
  27 600   0   0   0   0  0  0
  28 5013  14   0   0   0  0  0
  29 600   0   0   0   0  0  0
  30 5013  15   0   0   0  0  0
  31 600   0   0   0   0  0  0
  32 5013  16   0   0   0  0  0
  33 600   0   0   0   0  0  0
  34 5013  17   0   0   0  0  0
  35 600   0   0   0   0  0  0
  36 5013  18   0   0   0  0  0
  37 600   0   0   0   0  0  0
  38 5013  19   0   0   0  0  0
  39 600   0   0   0   0  0  0
  40 5013  20   0   0   0  0  0
  41 600   0   0   0   0  0  0
  42 5013  21   0   0   0  0  0
  43 600   0   0   0   0  0  0
  44 5013  22   0   0   0  0  0
  45 600   0   0   0   0  0  0
  46 5013  23   0   0   0  0  0
  47 600   0   0   0   0  0  0
  48 5013  24   0   0   0  0  0
  49 600   0   0   0   0  0  0
  50 5013  25   0   0   0  0  0
  51 600   0   0   0   0  0  0
  52 5013  26   0   0   0  0  0
  53 600   0   0   0   0  0  0
  54 5013  27   0   0   0  0  0
  55 600   0   0   0   0  0  0
  56 5013  28   0   0   0  0  0
  57 600   0   0   0   0  0  0
  58 5013  29   0   0   0  0  0
  59 600   0   0   0   0  0  0
  60 5013  30   0   0   0  0  0
  61 600   0   0   0   0  0  0
  62 5013  31   0   0   0  0  0
  63 600   0   0   0   0  0  0
  64 5013  32   0   0   0  0  0
  65 600   0   0   0   0  0  0
  66 5013  33   0   0   0  0  0
  67 600   0   0   0   0  0  0
  68 5013  34   0   0   0  0  0
  69 600   0   0   0   0  0  0
  70 5013  35   0   0   0  0  0
  71 600   0   0   0   0  0  0
  72 5013  36   0   0   0  0  0
  73 600   0   0   0   0  0  0
  74 5013  37   0   0   0  0  0
  75 600   0   0   0   0  0  0
  76 5013  38   0   0   0  0  0
  77 600   0   0   0   0  0  0
  78 5013  39   0   0   0  0  0
  79 600   0   0   0   0  0  0
  80 5013  40   0   0   0  0  0
  81 650   0   1   1   1  0  0
  82 100   0   0   0   0  1  0
  83 300000   0   0   0   0  0  0
  84 5013  41   0   0   0  0  0
  85 600   0   0   0   0  0  0
  86 5013  42   0   0   0  0  0
  87 600   0   0   0   0  0  0
  88 5013  43   0   0   0  0  0
  89 600   0   0   0   0  0  0
  90 5013  44   0   0   0  0  0
  91 600   0   0   0   0  0  0
  92 5013  45   0   0   0  0  0
  93 600   0   0   0   0  0  0
  94 5013  46   0   0   0  0  0
  95 600   0   0   0   0  0  0
  96 5013  47   0   0   0  0  0
  97 600   0   0   0   0  0  0
  98 5013  48   0   0   0  0  0
  99 600   0   0   0   0  0  0
 100 5013  49   0   0   0  0  0
 101 600   0   0   0   0  0  0
 102 5013  50   0   0   0  0  0
 103 600   0   0   0   0  0  0
 104 5013  51   0   0   0  0  0
 105 600   0   0   0   0  0  0
 106 5013  52   0   0   0  0  0
 107 600   0   0   0   0  0  0
 108 5013  53   0   0   0  0  0
 109 600   0   0   0   0  0  0
 110 5013  54   0   0   0  0  0
 111 600   0   0   0   0  0  0
 112 5013  55   0   0   0  0  0
 113 600   0   0   0   0  0  0
 114 5013  56   0   0   0  0  0
 115 600   0   0   0   0  0  0
 116 5013  57   0   0   0  0  0
 117 600   0   0   0   0  0  0
 118 5013  58   0   0   0  0  0
 119 600   0   0   0   0  0  0
 120 5013  59   0   0   0  0  0
 121 600   0   0   0   0  0  0
 122 5013  60   0   0   0  0  0
 123 600   0   0   0   0  0  0
 124 5013  61   0   0   0  0  0
 125 600   0   0   0   0  0  0
 126 5013  62   0   0   0  0  0
 127 600   0   0   0   0  0  0
 128 5013  63   0   0   0  0  0
 129 600   0   0   0   0  0  0
 130 5013  64   0   0   0  0  0
 131 600   0   0   0   0  0  0
 132 5013  65   0   0   0  0  0
 133 600   0   0   0   0  0  0
 134 5013  66   0   0   0  0  0
 135 600   0   0   0   0  0  0
 136 5013  67   0   0   0  0  0
 137 600   0   0   0   0  0  0
 138 5013  68   0   0   0  0  0
 139 600   0   0   0   0  0  0
 140 5013  69   0   0   0  0  0
 141 600   0   0   0   0  0  0
 142 5013  70   0   0   0  0  0
 143 600   0   0   0   0  0  0
 144 5013  71   0   0   0  0  0
 145 600   0   0   0   0  0  0
 146 5013  72   0   0   0  0  0
 147 600   0   0   0   0  0  0
 148 5013  73   0   0   0  0  0
 149 600   0   0   0   0  0  0
 150 5013  74   0   0   0  0  0
 151 600   0   0   0   0  0  0
 152 5013  75   0   0   0  0  0
 153 600   0   0   0   0  0  0
 154 5013  76   0   0   0  0  0
 155 600   0   0   0   0  0  0
 156 5013  77   0   0   0  0  0
 157 600   0   0   0   0  0  0
 158 5013  78   0   0   0  0  0
 159 600   0   0   0   0  0  0
 160 5013  79   0   0   0  0  0
 161 600   0   0   0   0  0  0
 162 5013  80   0   0   0  0  0
 163 650   0   1   1   1  0  0
 164 100   0   0   0   0  1  0
 165 300000   0   0   0   0  0  0
 166 5013  81   0   0   0  0  0
 167 600   0   0   0   0  0  0
 168 5013  82   0   0   0  0  0
 169 600   0   0   0   0  0  0
 170 5013  83   0   0   0  0  0
 171 600   0   0   0   0  0  0
 172 5013  84   0   0   0  0  0
 173 600   0   0   0   0  0  0
 174 5013  85   0   0   0  0  0
 175 600   0   0   0   0  0  0
 176 5013  86   0   0   0  0  0
 177 600   0   0   0   0  0  0
 178 5013  87   0   0   0  0  0
 179 600   0   0   0   0  0  0
 180 5013  88   0   0   0  0  0
 181 600   0   0   0   0  0  0
 182 5013  89   0   0   0  0  0
 183 600   0   0   0   0  0  0
 184 5013  90   0   0   0  0  0
 185 600   0   0   0   0  0  0
 186 5013  91   0   0   0  0  0
 187 600   0   0   0   0  0  0
 188 5013  92   0   0   0  0  0
 189 600   0   0   0   0  0  0
 190 5013  93   0   0   0  0  0
 191 600   0   0   0   0  0  0
 192 5013  94   0   0   0  0  0
 193 600   0   0   0   0  0  0
 194 5013  95   0   0   0  0  0
 195 600   0   0   0   0  0  0
 196 5013  96   0   0   0  0  0
 197 600   0   0   0   0  0  0
 198 5013  97   0   0   0  0  0
 199 600   0   0   0   0  0  0
 200 5013  98   0   0   0  0  0
 201 600   0   0   0   0  0  0
 202 5013  99   0   0   0  0  0
 203 600   0   0   0   0  0  0
 204 5013 100   0   0   0  0  0
 205 600   0   0   0   0  0  0
 206 5013 101   0   0   0  0  0
 207 600   0   0   0   0  0  0
 208 5013 102   0   0   0  0  0
 209 600   0   0   0   0  0  0
 210 5013 103   0   0   0  0  0
 211 600   0   0   0   0  0  0
 212 5013 104   0   0   0  0  0
 213 600   0   0   0   0  0  0
 214 5013 105   0   0   0  0  0
 215 600   0   0   0   0  0  0
 216 5013 106   0   0   0  0  0
 217 600   0   0   0   0  0  0
 218 5013 107   0   0   0  0  0
 219 600   0   0   0   0  0  0
 220 5013 108   0   0   0  0  0
 221 600   0   0   0   0  0  0
 222 5013 109   0   0   0  0  0
 223 600   0   0   0   0  0  0
 224 5013 110   0   0   0  0  0
 225 600   0   0   0   0  0  0
 226 5013 111   0   0   0  0  0
 227 600   0   0   0   0  0  0
 228 5013 112   0   0   0  0  0
 229 600   0   0   0   0  0  0
 230 5013 113   0   0   0  0  0
 231 600   0   0   0   0  0  0
 232 5013 114   0   0   0  0  0
 233 600   0   0   0   0  0  0
 234 5013 115   0   0   0  0  0
 235 600   0   0   0   0  0  0
 236 5013 116   0   0   0  0  0
 237 600   0   0   0   0  0  0
 238 5013 117   0   0   0  0  0
 239 600   0   0   0   0  0  0
 240 5013 118   0   0   0  0  0
 241 600   0   0   0   0  0  0
 242 5013 119   0   0   0  0  0
 243 600   0   0   0   0  0  0
 244 5013 120   0   0   0  0  0
 245 650   0   1   1   1  0  0
 246 100   0   0   0   0  1  0
 247 300000   0   0   0   0  0  0
 248 5013 121   0   0   0  0  0
 249 600   0   0   0   0  0  0
 250 5013 122   0   0   0  0  0
 251 600   0   0   0   0  0  0
 252 5013 123   0   0   0  0  0
 253 600   0   0   0   0  0  0
 254 5013 124   0   0   0  0  0
 255 600   0   0   0   0  0  0
 256 5013 125   0   0   0  0  0
 257 600   0   0   0   0  0  0
 258 5013 126   0   0   0  0  0
 259 600   0   0   0   0  0  0
 260 5013 127   0   0   0  0  0
 261 600   0   0   0   0  0  0
 262 5013 128   0   0   0  0  0
 263 600   0   0   0   0  0  0
 264 5013 129   0   0   0  0  0
 265 600   0   0   0   0  0  0
 266 5013 130   0   0   0  0  0
 267 600   0   0   0   0  0  0
 268 5013 131   0   0   0  0  0
 269 600   0   0   0   0  0  0
 270 5013 132   0   0   0  0  0
 271 600   0   0   0   0  0  0
 272 5013 133   0   0   0  0  0
 273 600   0   0   0   0  0  0
 274 5013 134   0   0   0  0  0
 275 600   0   0   0   0  0  0
 276 5013 135   0   0   0  0  0
 277 600   0   0   0   0  0  0
 278 5013 136   0   0   0  0  0
 279 600   0   0   0   0  0  0
 280 5013 137   0   0   0  0  0
 281 600   0   0   0   0  0  0
 282 5013 138   0   0   0  0  0
 283 600   0   0   0   0  0  0
 284 5013 139   0   0   0  0  0
 285 600   0   0   0   0  0  0
 286 5013 140   0   0   0  0  0
 287 600   0   0   0   0  0  0
 288 5013 141   0   0   0  0  0
[RF]
1      64.3756 1 2 0 100 -464934 0
2      64.3756 1 2 0 100 -464934 1.79448
3      64.3756 1 2 0 100 -464934 3.58896
4      64.3756 1 2 0 100 -464934 5.38343
5      64.3756 1 2 0 100 -464934 0.894726
6      64.3756 1 2 0 100 -464934 2.6892
7      64.3756 1 2 0 100 -464934 4.48368
8      64.3756 1 2 0 100 -464934 6.27816
9      64.3756 1 2 0 100 -464934 1.78945
10      64.3756 1 2 0 100 -464934 3.58393
11      64.3756 1 2 0 100 -464934 5.37841
12      64.3756 1 2 0 100 -464934 0.889699
13      64.3756 1 2 0 100 -464934 2.68418
14      64.3756 1 2 0 100 -464934 4.47865
15      64.3756 1 2 0 100 -464934 6.27313
16      64.3756 1 2 0 100 -464934 1.78442
17      64.3756 1 2 0 100 -464934 3.5789
18      64.3756 1 2 0 100 -464934 5.37338
19      64.3756 1 2 0 100 -464934 0.884672
20      64.3756 1 2 0 100 -464934 2.67915
21      64.3756 1 2 0 100 -464934 4.47363
22      64.3756 1 2 0 100 -464934 6.26811
23      64.3756 1 2 0 100 -464934 1.7794
24      64.3756 1 2 0 100 -464934 3.57388
25      64.3756 1 2 0 100 -464934 5.36835
26      64.3756 1 2 0 100 -464934 0.879646
27      64.3756 1 2 0 100 -464934 2.67412
28      64.3756 1 2 0 100 -464934 4.4686
29      64.3756 1 2 0 100 -464934 6.26308
30      64.3756 1 2 0 100 -464934 1.77437
31      64.3756 1 2 0 100 -464934 3.56885
32      64.3756 1 2 0 100 -464934 5.36333
33      64.3756 1 2 0 100 -464934 0.874619
34      64.3756 1 2 0 100 -464934 2.6691
35      64.3756 1 2 0 100 -464934 4.46357
36      64.3756 1 2 0 100 -464934 6.25805
37      64.3756 1 2 0 100 -464934 1.76934
38      64.3756 1 2 0 100 -464934 3.56382
39      64.3756 1 2 0 100 -464934 5.3583
40      64.3756 1 2 0 100 -464934 0.869593
41      64.3756 1 2 0 100 -1221.94 0
42      64.3756 1 2 0 100 -1221.94 5.67287
43      64.3756 1 2 0 100 -1221.94 5.06256
44      64.3756 1 2 0 100 -1221.94 4.45225
45      64.3756 1 2 0 100 -1221.94 3.84194
46      64.3756 1 2 0 100 -1221.94 3.23163
47      64.3756 1 2 0 100 -1221.94 2.62132
48      64.3756 1 2 0 100 -1221.94 2.01101
49      64.3756 1 2 0 100 -1221.94 1.4007
50      64.3756 1 2 0 100 -1221.94 0.790387
51      64.3756 1 2 0 100 -1221.94 0.180076
52      64.3756 1 2 0 100 -1221.94 5.85295
53      64.3756 1 2 0 100 -1221.94 5.24264
54      64.3756 1 2 0 100 -1221.94 4.63233
55      64.3756 1 2 0 100 -1221.94 4.02202
56      64.3756 1 2 0 100 -1221.94 3.41171
57      64.3756 1 2 0 100 -1221.94 2.8014
58      64.3756 1 2 0 100 -1221.94 2.19108
59      64.3756 1 2 0 100 -1221.94 1.58077
60      64.3756 1 2 0 100 -1221.94 0.970463
61      64.3756 1 2 0 100 -1221.94 0.360152
62      64.3756 1 2 0 100 -1221.94 6.03303
63      64.3756 1 2 0 100 -1221.94 5.42272
64      64.3756 1 2 0 100 -1221.94 4.8124
65      64.3756 1 2 0 100 -1221.94 4.20209
66      64.3756 1 2 0 100 -1221.94 3.59178
67      64.3756 1 2 0 100 -1221.94 2.98147
68      64.3756 1 2 0 100 -1221.94 2.37116
69      64.3756 1 2 0 100 -1221.94 1.76085
70      64.3756 1 2 0 100 -1221.94 1.15054
71      64.3756 1 2 0 100 -1221.94 0.540228
72      64.3756 1 2 0 100 -1221.94 6.2131
73      64.3756 1 2 0 100 -1221.94 5.60279
74      64.3756 1 2 0 100 -1221.94 4.99248
75      64.3756 1 2 0 100 -1221.94 4.38217
76      64.3756 1 2 0 100 -1221.94 3.77186
77      64.3756 1 2 0 100 -1221.94 3.16155
78      64.3756 1 2 0 100 -1221.94 2.55124
79      64.3756 1 2 0 100 -1221.94 1.94093
80      64.3756 1 2 0 100 -1221.94 1.33062
81      64.3756 1 2 0 100 -1192.14 0
82      64.3756 1 2 0 100 -1192.14 2.46954
83      64.3756 1 2 0 100 -1192.14 4.93909
84      64.3756 1 2 0 100 -1192.14 1.12544
85      64.3756 1 2 0 100 -1192.14 3.59499
86      64.3756 1 2 0 100 -1192.14 6.06453
87      64.3756 1 2 0 100 -1192.14 2.25089
88      64.3756 1 2 0 100 -1192.14 4.72043
89      64.3756 1 2 0 100 -1192.14 0.906789
90      64.3756 1 2 0 100 -1192.14 3.37633
91      64.3756 1 2 0 100 -1192.14 5.84588
92      64.3756 1 2 0 100 -1192.14 2.03223
93      64.3756 1 2 0 100 -1192.14 4.50178
94      64.3756 1 2 0 100 -1192.14 0.688134
95      64.3756 1 2 0 100 -1192.14 3.15768
96      64.3756 1 2 0 100 -1192.14 5.62722
97      64.3756 1 2 0 100 -1192.14 1.81358
98      64.3756 1 2 0 100 -1192.14 4.28312
99      64.3756 1 2 0 100 -1192.14 0.46948
100      64.3756 1 2 0 100 -1192.14 2.93902
101      64.3756 1 2 0 100 -1192.14 5.40857
102      64.3756 1 2 0 100 -1192.14 1.59492
103      64.3756 1 2 0 100 -1192.14 4.06447
104      64.3756 1 2 0 100 -1192.14 0.250825
105      64.3756 1 2 0 100 -1192.14 2.72037
106      64.3756 1 2 0 100 -1192.14 5.18991
107      64.3756 1 2 0 100 -1192.14 1.37627
108      64.3756 1 2 0 100 -1192.14 3.84581
109      64.3756 1 2 0 100 -1192.14 0.0321699
110      64.3756 1 2 0 100 -1192.14 2.50171
111      64.3756 1 2 0 100 -1192.14 4.97126
112      64.3756 1 2 0 100 -1192.14 1.15761
113      64.3756 1 2 0 100 -1192.14 3.62716
114      64.3756 1 2 0 100 -1192.14 6.0967
115      64.3756 1 2 0 100 -1192.14 2.28306
116      64.3756 1 2 0 100 -1192.14 4.7526
117      64.3756 1 2 0 100 -1192.14 0.938959
118      64.3756 1 2 0 100 -1192.14 3.4085
119      64.3756 1 2 0 100 -1192.14 5.87805
120      64.3756 1 2 0 100 -1192.14 2.0644
121      64.3756 1 2 0 100 -1162.34 0
122      64.3756 1 2 0 100 -1162.34 5.5494
123      64.3756 1 2 0 100 -1162.34 4.81561
124      64.3756 1 2 0 100 -1162.34 4.08182
125      64.3756 1 2 0 100 -1162.34 3.34803
126      64.3756 1 2 0 100 -1162.34 2.61424
127      64.3756 1 2 0 100 -1162.34 1.88046
128      64.3756 1 2 0 100 -1162.34 1.14667
129      64.3756 1 2 0 100 -1162.34 0.412881
130      64.3756 1 2 0 100 -1162.34 5.96228
131      64.3756 1 2 0 100 -1162.34 5.22849
132      64.3756 1 2 0 100 -1162.34 4.4947
133      64.3756 1 2 0 100 -1162.34 3.76091
134      64.3756 1 2 0 100 -1162.34 3.02713
135      64.3756 1 2 0 100 -1162.34 2.29334
136      64.3756 1 2 0 100 -1162.34 1.55955
137      64.3756 1 2 0 100 -1162.34 0.825761
138      64.3756 1 2 0 100 -1162.34 0.0919733
139      64.3756 1 2 0 100 -1162.34 5.64137
140      64.3756 1 2 0 100 -1162.34 4.90758
141      64.3756 1 2 0 100 -1162.34 4.17379
142      64.3756 1 2 0 100 -1162.34 3.44001
143      64.3756 1 2 0 100 -1162.34 2.70622
144      64.3756 1 2 0 100 -1162.34 1.97243
145      64.3756 1 2 0 100 -1162.34 1.23864
146      64.3756 1 2 0 100 -1162.34 0.504854
147      64.3756 1 2 0 100 -1162.34 6.05425
148      64.3756 1 2 0 100 -1162.34 5.32046
149      64.3756 1 2 0 100 -1162.34 4.58668
150      64.3756 1 2 0 100 -1162.34 3.85289
151      64.3756 1 2 0 100 -1162.34 3.1191
152      64.3756 1 2 0 100 -1162.34 2.38531
153      64.3756 1 2 0 100 -1162.34 1.65152
154      64.3756 1 2 0 100 -1162.34 0.917735
155      64.3756 1 2 0 100 -1162.34 0.183947
156      64.3756 1 2 0 100 -1162.34 5.73334
157      64.3756 1 2 0 100 -1162.34 4.99956
158      64.3756 1 2 0 100 -1162.34 4.26577
159      64.3756 1 2 0 100 -1162.34 3.53198
160      64.3756 1 2 0 100 -1162.34 2.79819
161      64.3756 1 2 0 100 -1132.53 0
162      64.3756 1 2 0 100 -1132.53 2.34607
163      64.3756 1 2 0 100 -1132.53 4.69213
164      64.3756 1 2 0 100 -1132.53 0.755013
165      64.3756 1 2 0 100 -1132.53 3.10108
166      64.3756 1 2 0 100 -1132.53 5.44714
167      64.3756 1 2 0 100 -1132.53 1.51003
168      64.3756 1 2 0 100 -1132.53 3.85609
169      64.3756 1 2 0 100 -1132.53 6.20216
170      64.3756 1 2 0 100 -1132.53 2.26504
171      64.3756 1 2 0 100 -1132.53 4.6111
172      64.3756 1 2 0 100 -1132.53 0.673985
173      64.3756 1 2 0 100 -1132.53 3.02005
174      64.3756 1 2 0 100 -1132.53 5.36612
175      64.3756 1 2 0 100 -1132.53 1.429
176      64.3756 1 2 0 100 -1132.53 3.77506
177      64.3756 1 2 0 100 -1132.53 6.12113
178      64.3756 1 2 0 100 -1132.53 2.18401
179      64.3756 1 2 0 100 -1132.53 4.53008
180      64.3756 1 2 0 100 -1132.53 0.592957
181      64.3756 1 2 0 100 -1132.53 2.93902
182      64.3756 1 2 0 100 -1132.53 5.28509
183      64.3756 1 2 0 100 -1132.53 1.34797
184      64.3756 1 2 0 100 -1132.53 3.69404
185      64.3756 1 2 0 100 -1132.53 6.0401
186      64.3756 1 2 0 100 -1132.53 2.10298
187      64.3756 1 2 0 100 -1132.53 4.44905
188      64.3756 1 2 0 100 -1132.53 0.511929
189      64.3756 1 2 0 100 -1132.53 2.85799
190      64.3756 1 2 0 100 -1132.53 5.20406
191      64.3756 1 2 0 100 -1132.53 1.26694
192      64.3756 1 2 0 100 -1132.53 3.61301
193      64.3756 1 2 0 100 -1132.53 5.95907
194      64.3756 1 2 0 100 -1132.53 2.02195
195      64.3756 1 2 0 100 -1132.53 4.36802
196      64.3756 1 2 0 100 -1132.53 0.430901
197      64.3756 1 2 0 100 -1132.53 2.77697
198      64.3756 1 2 0 100 -1132.53 5.12303
199      64.3756 1 2 0 100 -1132.53 1.18591
200      64.3756 1 2 0 100 -1132.53 3.53198
201      64.3756 1 2 0 100 -1102.73 0
202      64.3756 1 2 0 100 -1102.73 5.42592
203      64.3756 1 2 0 100 -1102.73 4.56865
204      64.3756 1 2 0 100 -1102.73 3.71139
205      64.3756 1 2 0 100 -1102.73 2.85412
206      64.3756 1 2 0 100 -1102.73 1.99686
207      64.3756 1 2 0 100 -1102.73 1.13959
208      64.3756 1 2 0 100 -1102.73 0.282329
209      64.3756 1 2 0 100 -1102.73 5.70825
210      64.3756 1 2 0 100 -1102.73 4.85098
211      64.3756 1 2 0 100 -1102.73 3.99372
212      64.3756 1 2 0 100 -1102.73 3.13645
213      64.3756 1 2 0 100 -1102.73 2.27919
214      64.3756 1 2 0 100 -1102.73 1.42192
215      64.3756 1 2 0 100 -1102.73 0.564657
216      64.3756 1 2 0 100 -1102.73 5.99058
217      64.3756 1 2 0 100 -1102.73 5.13331
218      64.3756 1 2 0 100 -1102.73 4.27605
219      64.3756 1 2 0 100 -1102.73 3.41878
220      64.3756 1 2 0 100 -1102.73 2.56152
221      64.3756 1 2 0 100 -1102.73 1.70425
222      64.3756 1 2 0 100 -1102.73 0.846986
223      64.3756 1 2 0 100 -1102.73 6.27291
224      64.3756 1 2 0 100 -1102.73 5.41564
225      64.3756 1 2 0 100 -1102.73 4.55838
226      64.3756 1 2 0 100 -1102.73 3.70111
227      64.3756 1 2 0 100 -1102.73 2.84385
228      64.3756 1 2 0 100 -1102.73 1.98658
229      64.3756 1 2 0 100 -1102.73 1.12931
230      64.3756 1 2 0 100 -1102.73 0.272049
231      64.3756 1 2 0 100 -1102.73 5.69797
232      64.3756 1 2 0 100 -1102.73 4.8407
233      64.3756 1 2 0 100 -1102.73 3.98344
234      64.3756 1 2 0 100 -1102.73 3.12617
235      64.3756 1 2 0 100 -1102.73 2.26891
236      64.3756 1 2 0 100 -1102.73 1.41164
237      64.3756 1 2 0 100 -1102.73 0.554378
238      64.3756 1 2 0 100 -1102.73 5.9803
239      64.3756 1 2 0 100 -1102.73 5.12303
240      64.3756 1 2 0 100 -1102.73 4.26577
241      64.3756 1 2 0 100 -1072.93 0
242      64.3756 1 2 0 100 -1072.93 2.22259
243      64.3756 1 2 0 100 -1072.93 4.44518
244      64.3756 1 2 0 100 -1072.93 0.384581
245      64.3756 1 2 0 100 -1072.93 2.60717
246      64.3756 1 2 0 100 -1072.93 4.82976
247      64.3756 1 2 0 100 -1072.93 0.769162
248      64.3756 1 2 0 100 -1072.93 2.99175
249      64.3756 1 2 0 100 -1072.93 5.21434
250      64.3756 1 2 0 100 -1072.93 1.15374
251      64.3756 1 2 0 100 -1072.93 3.37633
252      64.3756 1 2 0 100 -1072.93 5.59892
253      64.3756 1 2 0 100 -1072.93 1.53832
254      64.3756 1 2 0 100 -1072.93 3.76091
255      64.3756 1 2 0 100 -1072.93 5.9835
256      64.3756 1 2 0 100 -1072.93 1.92291
257      64.3756 1 2 0 100 -1072.93 4.14549
258      64.3756 1 2 0 100 -1072.93 0.0848984
259      64.3756 1 2 0 100 -1072.93 2.30749
260      64.3756 1 2 0 100 -1072.93 4.53008
261      64.3756 1 2 0 100 -1072.93 0.46948
262      64.3756 1 2 0 100 -1072.93 2.69207
263      64.3756 1 2 0 100 -1072.93 4.91466
264      64.3756 1 2 0 100 -1072.93 0.854061
265      64.3756 1 2 0 100 -1072.93 3.07665
266      64.3756 1 2 0 100 -1072.93 5.29924
267      64.3756 1 2 0 100 -1072.93 1.23864
268      64.3756 1 2 0 100 -1072.93 3.46123
269      64.3756 1 2 0 100 -1072.93 5.68382
270      64.3756 1 2 0 100 -1072.93 1.62322
271      64.3756 1 2 0 100 -1072.93 3.84581
272      64.3756 1 2 0 100 -1072.93 6.0684
273      64.3756 1 2 0 100 -1072.93 2.0078
274      64.3756 1 2 0 100 -1072.93 4.23039
275      64.3756 1 2 0 100 -1072.93 0.169797
276      64.3756 1 2 0 100 -1072.93 2.39239
277      64.3756 1 2 0 100 -1072.93 4.61497
278      64.3756 1 2 0 100 -1072.93 0.554378
279      64.3756 1 2 0 100 -1072.93 2.77697
280      64.3756 1 2 0 100 -1072.93 4.99956
281      64.3756 1 2 0 100 -1043.12 0
282      64.3756 1 2 0 100 -1043.12 5.30244
283      64.3756 1 2 0 100 -1043.12 4.3217
284      64.3756 1 2 0 100 -1043.12 3.34096
285      64.3756 1 2 0 100 -1043.12 2.36022
286      64.3756 1 2 0 100 -1043.12 1.37947
287      64.3756 1 2 0 100 -1043.12 0.398731
288      64.3756 1 2 0 100 -1043.12 5.70117
289      64.3756 1 2 0 100 -1043.12 4.72043
290      64.3756 1 2 0 100 -1043.12 3.73969
291      64.3756 1 2 0 100 -1043.12 2.75895
292      64.3756 1 2 0 100 -1043.12 1.7782
293      64.3756 1 2 0 100 -1043.12 0.797462
294      64.3756 1 2 0 100 -1043.12 6.0999
295      64.3756 1 2 0 100 -1043.12 5.11916
296      64.3756 1 2 0 100 -1043.12 4.13842
297      64.3756 1 2 0 100 -1043.12 3.15768
298      64.3756 1 2 0 100 -1043.12 2.17694
299      64.3756 1 2 0 100 -1043.12 1.19619
300      64.3756 1 2 0 100 -1043.12 0.21545
301      64.3756 1 2 0 100 -1043.12 5.51789
302      64.3756 1 2 0 100 -1043.12 4.53715
303      64.3756 1 2 0 100 -1043.12 3.55641
304      64.3756 1 2 0 100 -1043.12 2.57567
305      64.3756 1 2 0 100 -1043.12 1.59492
306      64.3756 1 2 0 100 -1043.12 0.614181
307      64.3756 1 2 0 100 -1043.12 5.91662
308      64.3756 1 2 0 100 -1043.12 4.93588
309      64.3756 1 2 0 100 -1043.12 3.95514
310      64.3756 1 2 0 100 -1043.12 2.9744
311      64.3756 1 2 0 100 -1043.12 1.99365
312      64.3756 1 2 0 100 -1043.12 1.01291
313      64.3756 1 2 0 100 -1043.12 0.0321699
314      64.3756 1 2 0 100 -1043.12 5.33461
315      64.3756 1 2 0 100 -1043.12 4.35387
316      64.3756 1 2 0 100 -1043.12 3.37313
317      64.3756 1 2 0 100 -1043.12 2.39239
318      64.3756 1 2 0 100 -1043.12 1.41164
319      64.3756 1 2 0 100 -1043.12 0.430901
320      64.3756 1 2 0 100 -1043.12 5.73334
321      64.3756 1 2 0 100 -1013.32 0
322      64.3756 1 2 0 100 -1013.32 2.09911
323      64.3756 1 2 0 100 -1013.32 4.19822
324      64.3756 1 2 0 100 -1013.32 0.0141497
325      64.3756 1 2 0 100 -1013.32 2.11326
326      64.3756 1 2 0 100 -1013.32 4.21237
327      64.3756 1 2 0 100 -1013.32 0.0282995
328      64.3756 1 2 0 100 -1013.32 2.12741
329      64.3756 1 2 0 100 -1013.32 4.22652
330      64.3756 1 2 0 100 -1013.32 0.0424492
331      64.3756 1 2 0 100 -1013.32 2.14156
332      64.3756 1 2 0 100 -1013.32 4.24067
333      64.3756 1 2 0 100 -1013.32 0.0565989
334      64.3756 1 2 0 100 -1013.32 2.15571
335      64.3756 1 2 0 100 -1013.32 4.25482
336      64.3756 1 2 0 100 -1013.32 0.0707487
337      64.3756 1 2 0 100 -1013.32 2.16986
338      64.3756 1 2 0 100 -1013.32 4.26897
339      64.3756 1 2 0 100 -1013.32 0.0848984
340      64.3756 1 2 0 100 -1013.32 2.18401
341      64.3756 1 2 0 100 -1013.32 4.28312
342      64.3756 1 2 0 100 -1013.32 0.0990481
343      64.3756 1 2 0 100 -1013.32 2.19816
344      64.3756 1 2 0 100 -1013.32 4.29727
345      64.3756 1 2 0 100 -1013.32 0.113198
346      64.3756 1 2 0 100 -1013.32 2.21231
347      64.3756 1 2 0 100 -1013.32 4.31142
348      64.3756 1 2 0 100 -1013.32 0.127348
349      64.3756 1 2 0 100 -1013.32 2.22646
350      64.3756 1 2 0 100 -1013.32 4.32557
351      64.3756 1 2 0 100 -1013.32 0.141497
352      64.3756 1 2 0 100 -1013.32 2.24061
353      64.3756 1 2 0 100 -1013.32 4.33972
354      64.3756 1 2 0 100 -1013.32 0.155647
355      64.3756 1 2 0 100 -1013.32 2.25476
356      64.3756 1 2 0 100 -1013.32 4.35387
357      64.3756 1 2 0 100 -1013.32 0.169797
358      64.3756 1 2 0 100 -1013.32 2.26891
359      64.3756 1 2 0 100 -1013.32 4.36802
360      64.3756 1 2 0 100 -1013.32 0.183947
361      64.3756 1 2 0 100 -983.515 0
362      64.3756 1 2 0 100 -983.515 5.17897
363      64.3756 1 2 0 100 -983.515 4.07475
364      64.3756 1 2 0 100 -983.515 2.97053
365      64.3756 1 2 0 100 -983.515 1.86631
366      64.3756 1 2 0 100 -983.515 0.762088
367      64.3756 1 2 0 100 -983.515 5.94105
368      64.3756 1 2 0 100 -983.515 4.83683
369      64.3756 1 2 0 100 -983.515 3.73261
370      64.3756 1 2 0 100 -983.515 2.62839
371      64.3756 1 2 0 100 -983.515 1.52418
372      64.3756 1 2 0 100 -983.515 0.419956
373      64.3756 1 2 0 100 -983.515 5.59892
374      64.3756 1 2 0 100 -983.515 4.4947
375      64.3756 1 2 0 100 -983.515 3.39048
376      64.3756 1 2 0 100 -983.515 2.28626
377      64.3756 1 2 0 100 -983.515 1.18204
378      64.3756 1 2 0 100 -983.515 0.0778235
379      64.3756 1 2 0 100 -983.515 5.25679
380      64.3756 1 2 0 100 -983.515 4.15257
381      64.3756 1 2 0 100 -983.515 3.04835
382      64.3756 1 2 0 100 -983.515 1.94413
383      64.3756 1 2 0 100 -983.515 0.839911
384      64.3756 1 2 0 100 -983.515 6.01888
385      64.3756 1 2 0 100 -983.515 4.91466
386      64.3756 1 2 0 100 -983.515 3.81044
387      64.3756 1 2 0 100 -983.515 2.70622
388      64.3756 1 2 0 100 -983.515 1.602
389      64.3756 1 2 0 100 -983.515 0.497779
390      64.3756 1 2 0 100 -983.515 5.67674
391      64.3756 1 2 0 100 -983.515 4.57253
392      64.3756 1 2 0 100 -983.515 3.46831
393      64.3756 1 2 0 100 -983.515 2.36409
394      64.3756 1 2 0 100 -983.515 1.25987
395      64.3756 1 2 0 100 -983.515 0.155647
396      64.3756 1 2 0 100 -983.515 5.33461
397      64.3756 1 2 0 100 -983.515 4.23039
398      64.3756 1 2 0 100 -983.515 3.12617
399      64.3756 1 2 0 100 -983.515 2.02195
400      64.3756 1 2 0 100 -983.515 0.917735
401      64.3756 1 2 0 100 -953.711 0
402      64.3756 1 2 0 100 -953.711 1.97563
403      64.3756 1 2 0 100 -953.711 3.95127
404      64.3756 1 2 0 100 -953.711 5.9269
405      64.3756 1 2 0 100 -953.711 1.61935
406      64.3756 1 2 0 100 -953.711 3.59499
407      64.3756 1 2 0 100 -953.711 5.57062
408      64.3756 1 2 0 100 -953.711 1.26307
409      64.3756 1 2 0 100 -953.711 3.23871
410      64.3756 1 2 0 100 -953.711 5.21434
411      64.3756 1 2 0 100 -953.711 0.906789
412      64.3756 1 2 0 100 -953.711 2.88242
413      64.3756 1 2 0 100 -953.711 4.85806
414      64.3756 1 2 0 100 -953.711 0.550508
415      64.3756 1 2 0 100 -953.711 2.52614
416      64.3756 1 2 0 100 -953.711 4.50178
417      64.3756 1 2 0 100 -953.711 0.194226
418      64.3756 1 2 0 100 -953.711 2.16986
419      64.3756 1 2 0 100 -953.711 4.14549
420      64.3756 1 2 0 100 -953.711 6.12113
421      64.3756 1 2 0 100 -953.711 1.81358
422      64.3756 1 2 0 100 -953.711 3.78921
423      64.3756 1 2 0 100 -953.711 5.76485
424      64.3756 1 2 0 100 -953.711 1.4573
425      64.3756 1 2 0 100 -953.711 3.43293
426      64.3756 1 2 0 100 -953.711 5.40857
427      64.3756 1 2 0 100 -953.711 1.10102
428      64.3756 1 2 0 100 -953.711 3.07665
429      64.3756 1 2 0 100 -953.711 5.05228
430      64.3756 1 2 0 100 -953.711 0.744733
431      64.3756 1 2 0 100 -953.711 2.72037
432      64.3756 1 2 0 100 -953.711 4.696
433      64.3756 1 2 0 100 -953.711 0.388452
434      64.3756 1 2 0 100 -953.711 2.36409
435      64.3756 1 2 0 100 -953.711 4.33972
436      64.3756 1 2 0 100 -953.711 0.0321699
437      64.3756 1 2 0 100 -953.711 2.0078
438      64.3756 1 2 0 100 -953.711 3.98344
439      64.3756 1 2 0 100 -953.711 5.95907
440      64.3756 1 2 0 100 -953.711 1.65152
441      64.3756 1 2 0 100 -923.908 0
442      64.3756 1 2 0 100 -923.908 5.05549
443      64.3756 1 2 0 100 -923.908 3.82779
444      64.3756 1 2 0 100 -923.908 2.6001
445      64.3756 1 2 0 100 -923.908 1.3724
446      64.3756 1 2 0 100 -923.908 0.144702
447      64.3756 1 2 0 100 -923.908 5.20019
448      64.3756 1 2 0 100 -923.908 3.97249
449      64.3756 1 2 0 100 -923.908 2.7448
450      64.3756 1 2 0 100 -923.908 1.5171
451      64.3756 1 2 0 100 -923.908 0.289404
452      64.3756 1 2 0 100 -923.908 5.34489
453      64.3756 1 2 0 100 -923.908 4.1172
454      64.3756 1 2 0 100 -923.908 2.8895
455      64.3756 1 2 0 100 -923.908 1.6618
456      64.3756 1 2 0 100 -923.908 0.434105
457      64.3756 1 2 0 100 -923.908 5.48959
458      64.3756 1 2 0 100 -923.908 4.2619
