# Pulseq sequence file
# Created by PyPulseq

[VERSION]
major 1
minor 4
revision 2

[DEFINITIONS]
AdcRasterTime 1e-07 
B0 7 
B1pa 1.26 
B1rms 2.00232359 
BlockDurationRaster 1e-05 
DCsat 0.892857143 
FREQ 298.0348 
GradientRasterTime 1e-05 
M0_offset -1560 
RadiofrequencyRasterTime 1e-06 
Trec 3 
Trec_M0 3 
Tsat 2.234 
n_pulses 40 
num_meas 18 
offsets_ppm -1560 -4 -3.5 -3 -2.5 -2 -1.5 -1 -0.5 0 0.5 1 1.5 2 2.5 3 3.5 4 
seq_id_string nachbildung_seq_koch_b1rms_2p9mut_trec_3ms_python 
spoiling 1 
td 0.006 
tp 0.05 

# Format of blocks:
# NUM DUR RF  GX  GY  GZ  ADC  EXT
[BLOCKS]
   1 300000   0   0   0   0  0  0
   2 5013   1   0   0   0  0  0
   3 600   0   0   0   0  0  0
   4 5013   2   0   0   0  0  0
   5 600   0   0   0   0  0  0
   6 5013   3   0   0   0  0  0
   7 600   0   0   0   0  0  0
   8 5013   4   0   0   0  0  0
   9 600   0   0   0   0  0  0
  10 5013   5   0   0   0  0  0
  11 600   0   0   0   0  0  0
  12 5013   6   0   0   0  0  0
  13 600   0   0   0   0  0  0
  14 5013   7   0   0   0  0  0
  15 600   0   0   0   0  0  0
  16 5013   8   0   0   0  0  0
  17 600   0   0   0   0  0  0
  18 5013   9   0   0   0  0  0
  19 600   0   0   0   0  0  0
  20 5013  10   0   0   0  0  0
  21 600   0   0   0   0  0  0
  22 5013  11   0   0   0  0  0
  23 600   0   0   0   0  0  0
  24 5013  12   0   0   0  0  0
  25 600   0   0   0   0  0  0
  26 5013  13   0   0   0  0  0
  27 600   0   0   0   0  0  0
  28 5013  14   0   0   0  0  0
  29 600   0   0   0   0  0  0
  30 5013  15   0   0   0  0  0
  31 600   0   0   0   0  0  0
  32 5013  16   0   0   0  0  0
  33 600   0   0   0   0  0  0
  34 5013  17   0   0   0  0  0
  35 600   0   0   0   0  0  0
  36 5013  18   0   0   0  0  0
  37 600   0   0   0   0  0  0
  38 5013  19   0   0   0  0  0
  39 600   0   0   0   0  0  0
  40 5013  20   0   0   0  0  0
  41 600   0   0   0   0  0  0
  42 5013  21   0   0   0  0  0
  43 600   0   0   0   0  0  0
  44 5013  22   0   0   0  0  0
  45 600   0   0   0   0  0  0
  46 5013  23   0   0   0  0  0
  47 600   0   0   0   0  0  0
  48 5013  24   0   0   0  0  0
  49 600   0   0   0   0  0  0
  50 5013  25   0   0   0  0  0
  51 600   0   0   0   0  0  0
  52 5013  26   0   0   0  0  0
  53 600   0   0   0   0  0  0
  54 5013  27   0   0   0  0  0
  55 600   0   0   0   0  0  0
  56 5013  28   0   0   0  0  0
  57 600   0   0   0   0  0  0
  58 5013  29   0   0   0  0  0
  59 600   0   0   0   0  0  0
  60 5013  30   0   0   0  0  0
  61 600   0   0   0   0  0  0
  62 5013  31   0   0   0  0  0
  63 600   0   0   0   0  0  0
  64 5013  32   0   0   0  0  0
  65 600   0   0   0   0  0  0
  66 5013  33   0   0   0  0  0
  67 600   0   0   0   0  0  0
  68 5013  34   0   0   0  0  0
  69 600   0   0   0   0  0  0
  70 5013  35   0   0   0  0  0
  71 600   0   0   0   0  0  0
  72 5013  36   0   0   0  0  0
  73 600   0   0   0   0  0  0
  74 5013  37   0   0   0  0  0
  75 600   0   0   0   0  0  0
  76 5013  38   0   0   0  0  0
  77 600   0   0   0   0  0  0
  78 5013  39   0   0   0  0  0
  79 600   0   0   0   0  0  0
  80 5013  40   0   0   0  0  0
  81 650   0   1   1   1  0  0
  82 100   0   0   0   0  1  0
  83 300000   0   0   0   0  0  0
  84 5013  41   0   0   0  0  0
  85 600   0   0   0   0  0  0
  86 5013  42   0   0   0  0  0
  87 600   0   0   0   0  0  0
  88 5013  43   0   0   0  0  0
  89 600   0   0   0   0  0  0
  90 5013  44   0   0   0  0  0
  91 600   0   0   0   0  0  0
  92 5013  45   0   0   0  0  0
  93 600   0   0   0   0  0  0
  94 5013  46   0   0   0  0  0
  95 600   0   0   0   0  0  0
  96 5013  47   0   0   0  0  0
  97 600   0   0   0   0  0  0
  98 5013  48   0   0   0  0  0
  99 600   0   0   0   0  0  0
 100 5013  49   0   0   0  0  0
 101 600   0   0   0   0  0  0
 102 5013  50   0   0   0  0  0
 103 600   0   0   0   0  0  0
 104 5013  51   0   0   0  0  0
 105 600   0   0   0   0  0  0
 106 5013  52   0   0   0  0  0
 107 600   0   0   0   0  0  0
 108 5013  53   0   0   0  0  0
 109 600   0   0   0   0  0  0
 110 5013  54   0   0   0  0  0
 111 600   0   0   0   0  0  0
 112 5013  55   0   0   0  0  0
 113 600   0   0   0   0  0  0
 114 5013  56   0   0   0  0  0
 115 600   0   0   0   0  0  0
 116 5013  57   0   0   0  0  0
 117 600   0   0   0   0  0  0
 118 5013  58   0   0   0  0  0
 119 600   0   0   0   0  0  0
 120 5013  59   0   0   0  0  0
 121 600   0   0   0   0  0  0
 122 5013  60   0   0   0  0  0
 123 600   0   0   0   0  0  0
 124 5013  61   0   0   0  0  0
 125 600   0   0   0   0  0  0
 126 5013  62   0   0   0  0  0
 127 600   0   0   0   0  0  0
 128 5013  63   0   0   0  0  0
 129 600   0   0   0   0  0  0
 130 5013  64   0   0   0  0  0
 131 600   0   0   0   0  0  0
 132 5013  65   0   0   0  0  0
 133 600   0   0   0   0  0  0
 134 5013  66   0   0   0  0  0
 135 600   0   0   0   0  0  0
 136 5013  67   0   0   0  0  0
 137 600   0   0   0   0  0  0
 138 5013  68   0   0   0  0  0
 139 600   0   0   0   0  0  0
 140 5013  69   0   0   0  0  0
 141 600   0   0   0   0  0  0
 142 5013  70   0   0   0  0  0
 143 600   0   0   0   0  0  0
 144 5013  71   0   0   0  0  0
 145 600   0   0   0   0  0  0
 146 5013  72   0   0   0  0  0
 147 600   0   0   0   0  0  0
 148 5013  73   0   0   0  0  0
 149 600   0   0   0   0  0  0
 150 5013  74   0   0   0  0  0
 151 600   0   0   0   0  0  0
 152 5013  75   0   0   0  0  0
 153 600   0   0   0   0  0  0
 154 5013  76   0   0   0  0  0
 155 600   0   0   0   0  0  0
 156 5013  77   0   0   0  0  0
 157 600   0   0   0   0  0  0
 158 5013  78   0   0   0  0  0
 159 600   0   0   0   0  0  0
 160 5013  79   0   0   0  0  0
 161 600   0   0   0   0  0  0
 162 5013  80   0   0   0  0  0
 163 650   0   1   1   1  0  0
 164 100   0   0   0   0  1  0
 165 300000   0   0   0   0  0  0
 166 5013  81   0   0   0  0  0
 167 600   0   0   0   0  0  0
 168 5013  82   0   0   0  0  0
 169 600   0   0   0   0  0  0
 170 5013  83   0   0   0  0  0
 171 600   0   0   0   0  0  0
 172 5013  84   0   0   0  0  0
 173 600   0   0   0   0  0  0
 174 5013  85   0   0   0  0  0
 175 600   0   0   0   0  0  0
 176 5013  86   0   0   0  0  0
 177 600   0   0   0   0  0  0
 178 5013  87   0   0   0  0  0
 179 600   0   0   0   0  0  0
 180 5013  88   0   0   0  0  0
 181 600   0   0   0   0  0  0
 182 5013  89   0   0   0  0  0
 183 600   0   0   0   0  0  0
 184 5013  90   0   0   0  0  0
 185 600   0   0   0   0  0  0
 186 5013  91   0   0   0  0  0
 187 600   0   0   0   0  0  0
 188 5013  92   0   0   0  0  0
 189 600   0   0   0   0  0  0
 190 5013  93   0   0   0  0  0
 191 600   0   0   0   0  0  0
 192 5013  94   0   0   0  0  0
 193 600   0   0   0   0  0  0
 194 5013  95   0   0   0  0  0
 195 600   0   0   0   0  0  0
 196 5013  96   0   0   0  0  0
 197 600   0   0   0   0  0  0
 198 5013  97   0   0   0  0  0
 199 600   0   0   0   0  0  0
 200 5013  98   0   0   0  0  0
 201 600   0   0   0   0  0  0
 202 5013  99   0   0   0  0  0
 203 600   0   0   0   0  0  0
 204 5013 100   0   0   0  0  0
 205 600   0   0   0   0  0  0
 206 5013 101   0   0   0  0  0
 207 600   0   0   0   0  0  0
 208 5013 102   0   0   0  0  0
 209 600   0   0   0   0  0  0
 210 5013 103   0   0   0  0  0
 211 600   0   0   0   0  0  0
 212 5013 104   0   0   0  0  0
 213 600   0   0   0   0  0  0
 214 5013 105   0   0   0  0  0
 215 600   0   0   0   0  0  0
 216 5013 106   0   0   0  0  0
 217 600   0   0   0   0  0  0
 218 5013 107   0   0   0  0  0
 219 600   0   0   0   0  0  0
 220 5013 108   0   0   0  0  0
 221 600   0   0   0   0  0  0
 222 5013 109   0   0   0  0  0
 223 600   0   0   0   0  0  0
 224 5013 110   0   0   0  0  0
 225 600   0   0   0   0  0  0
 226 5013 111   0   0   0  0  0
 227 600   0   0   0   0  0  0
 228 5013 112   0   0   0  0  0
 229 600   0   0   0   0  0  0
 230 5013 113   0   0   0  0  0
 231 600   0   0   0   0  0  0
 232 5013 114   0   0   0  0  0
 233 600   0   0   0   0  0  0
 234 5013 115   0   0   0  0  0
 235 600   0   0   0   0  0  0
 236 5013 116   0   0   0  0  0
 237 600   0   0   0   0  0  0
 238 5013 117   0   0   0  0  0
 239 600   0   0   0   0  0  0
 240 5013 118   0   0   0  0  0
 241 600   0   0   0   0  0  0
 242 5013 119   0   0   0  0  0
 243 600   0   0   0   0  0  0
 244 5013 120   0   0   0  0  0
 245 650   0   1   1   1  0  0
 246 100   0   0   0   0  1  0
 247 300000   0   0   0   0  0  0
 248 5013 121   0   0   0  0  0
 249 600   0   0   0   0  0  0
 250 5013 122   0   0   0  0  0
 251 600   0   0   0   0  0  0
 252 5013 123   0   0   0  0  0
 253 600   0   0   0   0  0  0
 254 5013 124   0   0   0  0  0
 255 600   0   0   0   0  0  0
 256 5013 125   0   0   0  0  0
 257 600   0   0   0   0  0  0
 258 5013 126   0   0   0  0  0
 259 600   0   0   0   0  0  0
 260 5013 127   0   0   0  0  0
 261 600   0   0   0   0  0  0
 262 5013 128   0   0   0  0  0
 263 600   0   0   0   0  0  0
 264 5013 129   0   0   0  0  0
 265 600   0   0   0   0  0  0
 266 5013 130   0   0   0  0  0
 267 600   0   0   0   0  0  0
 268 5013 131   0   0   0  0  0
 269 600   0   0   0   0  0  0
 270 5013 132   0   0   0  0  0
 271 600   0   0   0   0  0  0
 272 5013 133   0   0   0  0  0
 273 600   0   0   0   0  0  0
 274 5013 134   0   0   0  0  0
 275 600   0   0   0   0  0  0
 276 5013 135   0   0   0  0  0
 277 600   0   0   0   0  0  0
 278 5013 136   0   0   0  0  0
 279 600   0   0   0   0  0  0
 280 5013 137   0   0   0  0  0
 281 600   0   0   0   0  0  0
 282 5013 138   0   0   0  0  0
 283 600   0   0   0   0  0  0
 284 5013 139   0   0   0  0  0
 285 600   0   0   0   0  0  0
 286 5013 140   0   0   0  0  0
 287 600   0   0   0   0  0  0
 288 5013 141   0   0   0  0  0
 289 600   0   0   0   0  0  0
 290 5013 142   0   0   0  0  0
 291 600   0   0   0   0  0  0
 292 5013 143   0   0   0  0  0
 293 600   0   0   0   0  0  0
 294 5013 144   0   0   0  0  0
 295 600   0   0   0   0  0  0
 296 5013 145   0   0   0  0  0
 297 600   0   0   0   0  0  0
 298 5013 146   0   0   0  0  0
[RF]
1      214.585 1 2 0 100 -464934 0
2      214.585 1 2 0 100 -464934 1.79448
3      214.585 1 2 0 100 -464934 3.58896
4      214.585 1 2 0 100 -464934 5.38343
5      214.585 1 2 0 100 -464934 0.894726
6      214.585 1 2 0 100 -464934 2.6892
7      214.585 1 2 0 100 -464934 4.48368
8      214.585 1 2 0 100 -464934 6.27816
9      214.585 1 2 0 100 -464934 1.78945
10      214.585 1 2 0 100 -464934 3.58393
11      214.585 1 2 0 100 -464934 5.37841
12      214.585 1 2 0 100 -464934 0.889699
13      214.585 1 2 0 100 -464934 2.68418
14      214.585 1 2 0 100 -464934 4.47865
15      214.585 1 2 0 100 -464934 6.27313
16      214.585 1 2 0 100 -464934 1.78442
17      214.585 1 2 0 100 -464934 3.5789
18      214.585 1 2 0 100 -464934 5.37338
19      214.585 1 2 0 100 -464934 0.884672
20      214.585 1 2 0 100 -464934 2.67915
21      214.585 1 2 0 100 -464934 4.47363
22      214.585 1 2 0 100 -464934 6.26811
23      214.585 1 2 0 100 -464934 1.7794
24      214.585 1 2 0 100 -464934 3.57388
25      214.585 1 2 0 100 -464934 5.36835
26      214.585 1 2 0 100 -464934 0.879646
27      214.585 1 2 0 100 -464934 2.67412
28      214.585 1 2 0 100 -464934 4.4686
29      214.585 1 2 0 100 -464934 6.26308
30      214.585 1 2 0 100 -464934 1.77437
31      214.585 1 2 0 100 -464934 3.56885
32      214.585 1 2 0 100 -464934 5.36333
33      214.585 1 2 0 100 -464934 0.874619
34      214.585 1 2 0 100 -464934 2.6691
35      214.585 1 2 0 100 -464934 4.46357
36      214.585 1 2 0 100 -464934 6.25805
37      214.585 1 2 0 100 -464934 1.76934
38      214.585 1 2 0 100 -464934 3.56382
39      214.585 1 2 0 100 -464934 5.3583
40      214.585 1 2 0 100 -464934 0.869593
41      214.585 1 2 0 100 -1192.14 0
42      214.585 1 2 0 100 -1192.14 2.46954
43      214.585 1 2 0 100 -1192.14 4.93909
44      214.585 1 2 0 100 -1192.14 1.12544
45      214.585 1 2 0 100 -1192.14 3.59499
46      214.585 1 2 0 100 -1192.14 6.06453
47      214.585 1 2 0 100 -1192.14 2.25089
48      214.585 1 2 0 100 -1192.14 4.72043
49      214.585 1 2 0 100 -1192.14 0.906789
50      214.585 1 2 0 100 -1192.14 3.37633
51      214.585 1 2 0 100 -1192.14 5.84588
52      214.585 1 2 0 100 -1192.14 2.03223
53      214.585 1 2 0 100 -1192.14 4.50178
54      214.585 1 2 0 100 -1192.14 0.688134
55      214.585 1 2 0 100 -1192.14 3.15768
56      214.585 1 2 0 100 -1192.14 5.62722
57      214.585 1 2 0 100 -1192.14 1.81358
58      214.585 1 2 0 100 -1192.14 4.28312
59      214.585 1 2 0 100 -1192.14 0.46948
60      214.585 1 2 0 100 -1192.14 2.93902
61      214.585 1 2 0 100 -1192.14 5.40857
62      214.585 1 2 0 100 -1192.14 1.59492
63      214.585 1 2 0 100 -1192.14 4.06447
64      214.585 1 2 0 100 -1192.14 0.250825
65      214.585 1 2 0 100 -1192.14 2.72037
66      214.585 1 2 0 100 -1192.14 5.18991
67      214.585 1 2 0 100 -1192.14 1.37627
68      214.585 1 2 0 100 -1192.14 3.84581
69      214.585 1 2 0 100 -1192.14 0.0321699
70      214.585 1 2 0 100 -1192.14 2.50171
71      214.585 1 2 0 100 -1192.14 4.97126
72      214.585 1 2 0 100 -1192.14 1.15761
73      214.585 1 2 0 100 -1192.14 3.62716
74      214.585 1 2 0 100 -1192.14 6.0967
75      214.585 1 2 0 100 -1192.14 2.28306
76      214.585 1 2 0 100 -1192.14 4.7526
77      214.585 1 2 0 100 -1192.14 0.938959
78      214.585 1 2 0 100 -1192.14 3.4085
79      214.585 1 2 0 100 -1192.14 5.87805
80      214.585 1 2 0 100 -1192.14 2.0644
81      214.585 1 2 0 100 -1043.12 0
82      214.585 1 2 0 100 -1043.12 5.30244
83      214.585 1 2 0 100 -1043.12 4.3217
84      214.585 1 2 0 100 -1043.12 3.34096
85      214.585 1 2 0 100 -1043.12 2.36022
86      214.585 1 2 0 100 -1043.12 1.37947
87      214.585 1 2 0 100 -1043.12 0.398731
88      214.585 1 2 0 100 -1043.12 5.70117
89      214.585 1 2 0 100 -1043.12 4.72043
90      214.585 1 2 0 100 -1043.12 3.73969
91      214.585 1 2 0 100 -1043.12 2.75895
92      214.585 1 2 0 100 -1043.12 1.7782
93      214.585 1 2 0 100 -1043.12 0.797462
94      214.585 1 2 0 100 -1043.12 6.0999
95      214.585 1 2 0 100 -1043.12 5.11916
96      214.585 1 2 0 100 -1043.12 4.13842
97      214.585 1 2 0 100 -1043.12 3.15768
98      214.585 1 2 0 100 -1043.12 2.17694
99      214.585 1 2 0 100 -1043.12 1.19619
100      214.585 1 2 0 100 -1043.12 0.21545
101      214.585 1 2 0 100 -1043.12 5.51789
102      214.585 1 2 0 100 -1043.12 4.53715
103      214.585 1 2 0 100 -1043.12 3.55641
104      214.585 1 2 0 100 -1043.12 2.57567
105      214.585 1 2 0 100 -1043.12 1.59492
106      214.585 1 2 0 100 -1043.12 0.614181
107      214.585 1 2 0 100 -1043.12 5.91662
108      214.585 1 2 0 100 -1043.12 4.93588
109      214.585 1 2 0 100 -1043.12 3.95514
110      214.585 1 2 0 100 -1043.12 2.9744
111      214.585 1 2 0 100 -1043.12 1.99365
112      214.585 1 2 0 100 -1043.12 1.01291
113      214.585 1 2 0 100 -1043.12 0.0321699
114      214.585 1 2 0 100 -1043.12 5.33461
115      214.585 1 2 0 100 -1043.12 4.35387
116      214.585 1 2 0 100 -1043.12 3.37313
117      214.585 1 2 0 100 -1043.12 2.39239
118      214.585 1 2 0 100 -1043.12 1.41164
119      214.585 1 2 0 100 -1043.12 0.430901
120      214.585 1 2 0 100 -1043.12 5.73334
121      214.585 1 2 0 100 -894.104 0
122      214.585 1 2 0 100 -894.104 1.85216
123      214.585 1 2 0 100 -894.104 3.70431
124      214.585 1 2 0 100 -894.104 5.55647
125      214.585 1 2 0 100 -894.104 1.12544
126      214.585 1 2 0 100 -894.104 2.9776
127      214.585 1 2 0 100 -894.104 4.82976
128      214.585 1 2 0 100 -894.104 0.398731
129      214.585 1 2 0 100 -894.104 2.25089
130      214.585 1 2 0 100 -894.104 4.10305
131      214.585 1 2 0 100 -894.104 5.9552
132      214.585 1 2 0 100 -894.104 1.52418
133      214.585 1 2 0 100 -894.104 3.37633
134      214.585 1 2 0 100 -894.104 5.22849
135      214.585 1 2 0 100 -894.104 0.797462
136      214.585 1 2 0 100 -894.104 2.64962
137      214.585 1 2 0 100 -894.104 4.50178
138      214.585 1 2 0 100 -894.104 0.0707487
139      214.585 1 2 0 100 -894.104 1.92291
140      214.585 1 2 0 100 -894.104 3.77506
141      214.585 1 2 0 100 -894.104 5.62722
142      214.585 1 2 0 100 -894.104 1.19619
143      214.585 1 2 0 100 -894.104 3.04835
144      214.585 1 2 0 100 -894.104 4.90051
145      214.585 1 2 0 100 -894.104 0.46948
146      214.585 1 2 0 100 -894.104 2.32164
147      214.585 1 2 0 100 -894.104 4.17379
148      214.585 1 2 0 100 -894.104 6.02595
149      214.585 1 2 0 100 -894.104 1.59492
150      214.585 1 2 0 100 -894.104 3.44708
151      214.585 1 2 0 100 -894.104 5.29924
152      214.585 1 2 0 100 -894.104 0.868211
153      214.585 1 2 0 100 -894.104 2.72037
154      214.585 1 2 0 100 -894.104 4.57253
155      214.585 1 2 0 100 -894.104 0.141497
156      214.585 1 2 0 100 -894.104 1.99365
157      214.585 1 2 0 100 -894.104 3.84581
158      214.585 1 2 0 100 -894.104 5.69797
159      214.585 1 2 0 100 -894.104 1.26694
160      214.585 1 2 0 100 -894.104 3.1191
161      214.585 1 2 0 100 -745.087 0
162      214.585 1 2 0 100 -745.087 4.68506
163      214.585 1 2 0 100 -745.087 3.08693
164      214.585 1 2 0 100 -745.087 1.4888
165      214.585 1 2 0 100 -745.087 6.17386
166      214.585 1 2 0 100 -745.087 4.57573
167      214.585 1 2 0 100 -745.087 2.9776
168      214.585 1 2 0 100 -745.087 1.37947
169      214.585 1 2 0 100 -745.087 6.06453
170      214.585 1 2 0 100 -745.087 4.4664
171      214.585 1 2 0 100 -745.087 2.86827
172      214.585 1 2 0 100 -745.087 1.27015
173      214.585 1 2 0 100 -745.087 5.9552
174      214.585 1 2 0 100 -745.087 4.35707
175      214.585 1 2 0 100 -745.087 2.75895
176      214.585 1 2 0 100 -745.087 1.16082
177      214.585 1 2 0 100 -745.087 5.84588
178      214.585 1 2 0 100 -745.087 4.24775
179      214.585 1 2 0 100 -745.087 2.64962
180      214.585 1 2 0 100 -745.087 1.05149
181      214.585 1 2 0 100 -745.087 5.73655
182      214.585 1 2 0 100 -745.087 4.13842
183      214.585 1 2 0 100 -745.087 2.54029
184      214.585 1 2 0 100 -745.087 0.942164
185      214.585 1 2 0 100 -745.087 5.62722
186      214.585 1 2 0 100 -745.087 4.02909
187      214.585 1 2 0 100 -745.087 2.43096
188      214.585 1 2 0 100 -745.087 0.832836
189      214.585 1 2 0 100 -745.087 5.51789
190      214.585 1 2 0 100 -745.087 3.91977
191      214.585 1 2 0 100 -745.087 2.32164
192      214.585 1 2 0 100 -745.087 0.723509
193      214.585 1 2 0 100 -745.087 5.40857
194      214.585 1 2 0 100 -745.087 3.81044
195      214.585 1 2 0 100 -745.087 2.21231
196      214.585 1 2 0 100 -745.087 0.614181
197      214.585 1 2 0 100 -745.087 5.29924
198      214.585 1 2 0 100 -745.087 3.70111
199      214.585 1 2 0 100 -745.087 2.10298
200      214.585 1 2 0 100 -745.087 0.504854
201      214.585 1 2 0 100 -596.07 0
202      214.585 1 2 0 100 -596.07 1.23477
203      214.585 1 2 0 100 -596.07 2.46954
204      214.585 1 2 0 100 -596.07 3.70431
205      214.585 1 2 0 100 -596.07 4.93909
206      214.585 1 2 0 100 -596.07 6.17386
207      214.585 1 2 0 100 -596.07 1.12544
208      214.585 1 2 0 100 -596.07 2.36022
209      214.585 1 2 0 100 -596.07 3.59499
210      214.585 1 2 0 100 -596.07 4.82976
211      214.585 1 2 0 100 -596.07 6.06453
212      214.585 1 2 0 100 -596.07 1.01612
213      214.585 1 2 0 100 -596.07 2.25089
214      214.585 1 2 0 100 -596.07 3.48566
215      214.585 1 2 0 100 -596.07 4.72043
216      214.585 1 2 0 100 -596.07 5.9552
217      214.585 1 2 0 100 -596.07 0.906789
218      214.585 1 2 0 100 -596.07 2.14156
219      214.585 1 2 0 100 -596.07 3.37633
220      214.585 1 2 0 100 -596.07 4.6111
221      214.585 1 2 0 100 -596.07 5.84588
222      214.585 1 2 0 100 -596.07 0.797462
223      214.585 1 2 0 100 -596.07 2.03223
224      214.585 1 2 0 100 -596.07 3.26701
225      214.585 1 2 0 100 -596.07 4.50178
226      214.585 1 2 0 100 -596.07 5.73655
227      214.585 1 2 0 100 -596.07 0.688134
228      214.585 1 2 0 100 -596.07 1.92291
229      214.585 1 2 0 100 -596.07 3.15768
230      214.585 1 2 0 100 -596.07 4.39245
231      214.585 1 2 0 100 -596.07 5.62722
232      214.585 1 2 0 100 -596.07 0.578807
233      214.585 1 2 0 100 -596.07 1.81358
234      214.585 1 2 0 100 -596.07 3.04835
235      214.585 1 2 0 100 -596.07 4.28312
236      214.585 1 2 0 100 -596.07 5.51789
237      214.585 1 2 0 100 -596.07 0.46948
238      214.585 1 2 0 100 -596.07 1.70425
239      214.585 1 2 0 100 -596.07 2.93902
240      214.585 1 2 0 100 -596.07 4.17379
241      214.585 1 2 0 100 -447.052 0
242      214.585 1 2 0 100 -447.052 4.06767
243      214.585 1 2 0 100 -447.052 1.85216
244      214.585 1 2 0 100 -447.052 5.91983
245      214.585 1 2 0 100 -447.052 3.70431
246      214.585 1 2 0 100 -447.052 1.4888
247      214.585 1 2 0 100 -447.052 5.55647
248      214.585 1 2 0 100 -447.052 3.34096
249      214.585 1 2 0 100 -447.052 1.12544
250      214.585 1 2 0 100 -447.052 5.19312
251      214.585 1 2 0 100 -447.052 2.9776
252      214.585 1 2 0 100 -447.052 0.762088
253      214.585 1 2 0 100 -447.052 4.82976
254      214.585 1 2 0 100 -447.052 2.61424
255      214.585 1 2 0 100 -447.052 0.398731
256      214.585 1 2 0 100 -447.052 4.4664
257      214.585 1 2 0 100 -447.052 2.25089
258      214.585 1 2 0 100 -447.052 0.0353743
259      214.585 1 2 0 100 -447.052 4.10305
260      214.585 1 2 0 100 -447.052 1.88753
261      214.585 1 2 0 100 -447.052 5.9552
262      214.585 1 2 0 100 -447.052 3.73969
263      214.585 1 2 0 100 -447.052 1.52418
264      214.585 1 2 0 100 -447.052 5.59185
265      214.585 1 2 0 100 -447.052 3.37633
266      214.585 1 2 0 100 -447.052 1.16082
267      214.585 1 2 0 100 -447.052 5.22849
268      214.585 1 2 0 100 -447.052 3.01298
269      214.585 1 2 0 100 -447.052 0.797462
270      214.585 1 2 0 100 -447.052 4.86513
271      214.585 1 2 0 100 -447.052 2.64962
272      214.585 1 2 0 100 -447.052 0.434105
273      214.585 1 2 0 100 -447.052 4.50178
274      214.585 1 2 0 100 -447.052 2.28626
275      214.585 1 2 0 100 -447.052 0.0707487
276      214.585 1 2 0 100 -447.052 4.13842
277      214.585 1 2 0 100 -447.052 1.92291
278      214.585 1 2 0 100 -447.052 5.99058
279      214.585 1 2 0 100 -447.052 3.77506
280      214.585 1 2 0 100 -447.052 1.55955
281      214.585 1 2 0 100 -298.035 0
282      214.585 1 2 0 100 -298.035 0.617386
283      214.585 1 2 0 100 -298.035 1.23477
284      214.585 1 2 0 100 -298.035 1.85216
285      214.585 1 2 0 100 -298.035 2.46954
286      214.585 1 2 0 100 -298.035 3.08693
287      214.585 1 2 0 100 -298.035 3.70431
288      214.585 1 2 0 100 -298.035 4.3217
289      214.585 1 2 0 100 -298.035 4.93909
290      214.585 1 2 0 100 -298.035 5.55647
291      214.585 1 2 0 100 -298.035 6.17386
292      214.585 1 2 0 100 -298.035 0.508058
293      214.585 1 2 0 100 -298.035 1.12544
294      214.585 1 2 0 100 -298.035 1.74283
295      214.585 1 2 0 100 -298.035 2.36022
296      214.585 1 2 0 100 -298.035 2.9776
297      214.585 1 2 0 100 -298.035 3.59499
298      214.585 1 2 0 100 -298.035 4.21237
299      214.585 1 2 0 100 -298.035 4.82976
300      214.585 1 2 0 100 -298.035 5.44714
301      214.585 1 2 0 100 -298.035 6.06453
302      214.585 1 2 0 100 -298.035 0.398731
303      214.585 1 2 0 100 -298.035 1.01612
304      214.585 1 2 0 100 -298.035 1.6335
305      214.585 1 2 0 100 -298.035 2.25089
306      214.585 1 2 0 100 -298.035 2.86827
307      214.585 1 2 0 100 -298.035 3.48566
308      214.585 1 2 0 100 -298.035 4.10305
309      214.585 1 2 0 100 -298.035 4.72043
310      214.585 1 2 0 100 -298.035 5.33782
311      214.585 1 2 0 100 -298.035 5.9552
312      214.585 1 2 0 100 -298.035 0.289404
313      214.585 1 2 0 100 -298.035 0.906789
314      214.585 1 2 0 100 -298.035 1.52418
315      214.585 1 2 0 100 -298.035 2.14156
316      214.585 1 2 0 100 -298.035 2.75895
317      214.585 1 2 0 100 -298.035 3.37633
318      214.585 1 2 0 100 -298.035 3.99372
319      214.585 1 2 0 100 -298.035 4.6111
320      214.585 1 2 0 100 -298.035 5.22849
321      214.585 1 2 0 100 -149.017 0
322      214.585 1 2 0 100 -149.017 3.45029
323      214.585 1 2 0 100 -149.017 0.617386
324      214.585 1 2 0 100 -149.017 4.06767
325      214.585 1 2 0 100 -149.017 1.23477
326      214.585 1 2 0 100 -149.017 4.68506
327      214.585 1 2 0 100 -149.017 1.85216
328      214.585 1 2 0 100 -149.017 5.30244
329      214.585 1 2 0 100 -149.017 2.46954
330      214.585 1 2 0 100 -149.017 5.91983
331      214.585 1 2 0 100 -149.017 3.08693
332      214.585 1 2 0 100 -149.017 0.254029
333      214.585 1 2 0 100 -149.017 3.70431
334      214.585 1 2 0 100 -149.017 0.871415
335      214.585 1 2 0 100 -149.017 4.3217
336      214.585 1 2 0 100 -149.017 1.4888
337      214.585 1 2 0 100 -149.017 4.93909
338      214.585 1 2 0 100 -149.017 2.10619
339      214.585 1 2 0 100 -149.017 5.55647
340      214.585 1 2 0 100 -149.017 2.72357
341      214.585 1 2 0 100 -149.017 6.17386
342      214.585 1 2 0 100 -149.017 3.34096
343      214.585 1 2 0 100 -149.017 0.508058
344      214.585 1 2 0 100 -149.017 3.95834
345      214.585 1 2 0 100 -149.017 1.12544
346      214.585 1 2 0 100 -149.017 4.57573
347      214.585 1 2 0 100 -149.017 1.74283
348      214.585 1 2 0 100 -149.017 5.19312
349      214.585 1 2 0 100 -149.017 2.36022
350      214.585 1 2 0 100 -149.017 5.8105
351      214.585 1 2 0 100 -149.017 2.9776
352      214.585 1 2 0 100 -149.017 0.144702
353      214.585 1 2 0 100 -149.017 3.59499
354      214.585 1 2 0 100 -149.017 0.762088
355      214.585 1 2 0 100 -149.017 4.21237
356      214.585 1 2 0 100 -149.017 1.37947
357      214.585 1 2 0 100 -149.017 4.82976
358      214.585 1 2 0 100 -149.017 1.99686
359      214.585 1 2 0 100 -149.017 5.44714
360      214.585 1 2 0 100 -149.017 2.61424
361      214.585 1 2 0 100 0 0
362      214.585 1 2 0 100 149.017 0
363      214.585 1 2 0 100 149.017 2.8329
364      214.585 1 2 0 100 149.017 5.6658
365      214.585 1 2 0 100 149.017 2.21551
366      214.585 1 2 0 100 149.017 5.04841
367      214.585 1 2 0 100 149.017 1.59813
368      214.585 1 2 0 100 149.017 4.43103
369      214.585 1 2 0 100 149.017 0.980742
370      214.585 1 2 0 100 149.017 3.81364
371      214.585 1 2 0 100 149.017 0.363357
372      214.585 1 2 0 100 149.017 3.19626
373      214.585 1 2 0 100 149.017 6.02916
374      214.585 1 2 0 100 149.017 2.57887
375      214.585 1 2 0 100 149.017 5.41177
376      214.585 1 2 0 100 149.017 1.96148
377      214.585 1 2 0 100 149.017 4.79438
378      214.585 1 2 0 100 149.017 1.3441
379      214.585 1 2 0 100 149.017 4.177
380      214.585 1 2 0 100 149.017 0.726713
381      214.585 1 2 0 100 149.017 3.55961
382      214.585 1 2 0 100 149.017 0.109327
383      214.585 1 2 0 100 149.017 2.94223
384      214.585 1 2 0 100 149.017 5.77513
385      214.585 1 2 0 100 149.017 2.32484
386      214.585 1 2 0 100 149.017 5.15774
387      214.585 1 2 0 100 149.017 1.70746
388      214.585 1 2 0 100 149.017 4.54036
389      214.585 1 2 0 100 149.017 1.09007
390      214.585 1 2 0 100 149.017 3.92297
391      214.585 1 2 0 100 149.017 0.472684
392      214.585 1 2 0 100 149.017 3.30558
393      214.585 1 2 0 100 149.017 6.13848
394      214.585 1 2 0 100 149.017 2.6882
395      214.585 1 2 0 100 149.017 5.5211
396      214.585 1 2 0 100 149.017 2.07081
397      214.585 1 2 0 100 149.017 4.90371
398      214.585 1 2 0 100 149.017 1.45343
399      214.585 1 2 0 100 149.017 4.28633
400      214.585 1 2 0 100 149.017 0.836041
401      214.585 1 2 0 100 149.017 3.66894
402      214.585 1 2 0 100 298.035 0
403      214.585 1 2 0 100 298.035 5.6658
404      214.585 1 2 0 100 298.035 5.04841
405      214.585 1 2 0 100 298.035 4.43103
406      214.585 1 2 0 100 298.035 3.81364
407      214.585 1 2 0 100 298.035 3.19626
408      214.585 1 2 0 100 298.035 2.57887
409      214.585 1 2 0 100 298.035 1.96148
410      214.585 1 2 0 100 298.035 1.3441
411      214.585 1 2 0 100 298.035 0.726713
412      214.585 1 2 0 100 298.035 0.109327
413      214.585 1 2 0 100 298.035 5.77513
414      214.585 1 2 0 100 298.035 5.15774
415      214.585 1 2 0 100 298.035 4.54036
416      214.585 1 2 0 100 298.035 3.92297
417      214.585 1 2 0 100 298.035 3.30558
418      214.585 1 2 0 100 298.035 2.6882
419      214.585 1 2 0 100 298.035 2.07081
420      214.585 1 2 0 100 298.035 1.45343
421      214.585 1 2 0 100 298.035 0.836041
422      214.585 1 2 0 100 298.035 0.218655
423      214.585 1 2 0 100 298.035 5.88445
424      214.585 1 2 0 100 298.035 5.26707
425      214.585 1 2 0 100 298.035 4.64968
426      214.585 1 2 0 100 298.035 4.0323
427      214.585 1 2 0 100 298.035 3.41491
428      214.585 1 2 0 100 298.035 2.79753
429      214.585 1 2 0 100 298.035 2.18014
430      214.585 1 2 0 100 298.035 1.56275
431      214.585 1 2 0 100 298.035 0.945368
432      214.585 1 2 0 100 298.035 0.327982
433      214.585 1 2 0 100 298.035 5.99378
434      214.585 1 2 0 100 298.035 5.3764
435      214.585 1 2 0 100 298.035 4.75901
436      214.585 1 2 0 100 298.035 4.14162
437      214.585 1 2 0 100 298.035 3.52424
438      214.585 1 2 0 100 298.035 2.90685
439      214.585 1 2 0 100 298.035 2.28947
440      214.585 1 2 0 100 298.035 1.67208
441      214.585 1 2 0 100 298.035 1.0547
442      214.585 1 2 0 100 447.052 0
443      214.585 1 2 0 100 447.052 2.21551
444      214.585 1 2 0 100 447.052 4.43103
445      214.585 1 2 0 100 447.052 0.363357
446      214.585 1 2 0 100 447.052 2.57887
447      214.585 1 2 0 100 447.052 4.79438
448      214.585 1 2 0 100 447.052 0.726713
449      214.585 1 2 0 100 447.052 2.94223
450      214.585 1 2 0 100 447.052 5.15774
451      214.585 1 2 0 100 447.052 1.09007
452      214.585 1 2 0 100 447.052 3.30558
453      214.585 1 2 0 100 447.052 5.5211
454      214.585 1 2 0 100 447.052 1.45343
455      214.585 1 2 0 100 447.052 3.66894
456      214.585 1 2 0 100 447.052 5.88445
457      214.585 1 2 0 100 447.052 1.81678
458      214.585 1 2 0 100 447.052 4.0323
459      214.585 1 2 0 100 447.052 6.24781
460      214.585 1 2 0 100 447.052 2.18014
461      214.585 1 2 0 100 447.052 4.39565
462      214.585 1 2 0 100 447.052 0.327982
