# Pulseq sequence file
# Created by PyPulseq

# Created for Pulseq-CEST
# https://pulseq-cest.github.io/
# Created by: Kai Herz & Patrick Schuenke
# Created at: 12-Mar-2023 17:29:57

[VERSION]
major 1
minor 3
revision 1post1

[DEFINITIONS]
B0 3 
B1pa 2 2 1.7 1.5 1.2 1.2 3 0.5 3 1 2.2 3.2 1.5 0.7 1.5 2.2 2.5 1.2 3 0.2 1.5 2.5 0.7 4 3.2 3.5 1.5 2.7 0.7 0.5 
B1rms 2 2 1.7 1.5 1.2 1.2 3 0.5 3 1 2.2 3.2 1.5 0.7 1.5 2.2 2.5 1.2 3 0.2 1.5 2.5 0.7 4 3.2 3.5 1.5 2.7 0.7 0.5 
DCsat 0.5 
FREQ 127.7292 
Trec 1.0 
Tsat 2.5 
n_pulses 13 
num_meas 30 
offsets_ppm 3 3 3 3 3 3 3 3 3 3 3 3 3 3 3 3 3 3 3 3 3 3 3 3 3 3 3 3 3 3 
seq_id_string MRF_CEST_LArginine_3T_002_13SL_DC50_2500ms_python 
spoiling 1 
td 0.1 
tp 0.1 

# Format of blocks:
#  #  D RF  GX  GY  GZ ADC EXT
[BLOCKS]
   1  1  0   0   0   0  0  0
   2  0  1   0   0   0  0  0
   3  0  2   0   0   0  0  0
   4  0  3   0   0   0  0  0
   5  2  0   0   0   0  0  0
   6  0  4   0   0   0  0  0
   7  0  5   0   0   0  0  0
   8  0  6   0   0   0  0  0
   9  2  0   0   0   0  0  0
  10  0  7   0   0   0  0  0
  11  0  8   0   0   0  0  0
  12  0  9   0   0   0  0  0
  13  2  0   0   0   0  0  0
  14  0 10   0   0   0  0  0
  15  0 11   0   0   0  0  0
  16  0 12   0   0   0  0  0
  17  2  0   0   0   0  0  0
  18  0 13   0   0   0  0  0
  19  0 14   0   0   0  0  0
  20  0 15   0   0   0  0  0
  21  2  0   0   0   0  0  0
  22  0 16   0   0   0  0  0
  23  0 17   0   0   0  0  0
  24  0 18   0   0   0  0  0
  25  2  0   0   0   0  0  0
  26  0 19   0   0   0  0  0
  27  0 20   0   0   0  0  0
  28  0 21   0   0   0  0  0
  29  2  0   0   0   0  0  0
  30  0 22   0   0   0  0  0
  31  0 23   0   0   0  0  0
  32  0 24   0   0   0  0  0
  33  2  0   0   0   0  0  0
  34  0 25   0   0   0  0  0
  35  0 26   0   0   0  0  0
  36  0 27   0   0   0  0  0
  37  2  0   0   0   0  0  0
  38  0 28   0   0   0  0  0
  39  0 29   0   0   0  0  0
  40  0 30   0   0   0  0  0
  41  2  0   0   0   0  0  0
  42  0 31   0   0   0  0  0
  43  0 32   0   0   0  0  0
  44  0 33   0   0   0  0  0
  45  2  0   0   0   0  0  0
  46  0 34   0   0   0  0  0
  47  0 35   0   0   0  0  0
  48  0 36   0   0   0  0  0
  49  2  0   0   0   0  0  0
  50  0 37   0   0   0  0  0
  51  0 38   0   0   0  0  0
  52  0 39   0   0   0  0  0
  53  0  0   1   1   1  0  0
  54  0  0   0   0   0  1  0
  55  1  0   0   0   0  0  0
  56  0  1   0   0   0  0  0
  57  0  2   0   0   0  0  0
  58  0  3   0   0   0  0  0
  59  2  0   0   0   0  0  0
  60  0  4   0   0   0  0  0
  61  0  5   0   0   0  0  0
  62  0  6   0   0   0  0  0
  63  2  0   0   0   0  0  0
  64  0  7   0   0   0  0  0
  65  0  8   0   0   0  0  0
  66  0  9   0   0   0  0  0
  67  2  0   0   0   0  0  0
  68  0 10   0   0   0  0  0
  69  0 11   0   0   0  0  0
  70  0 12   0   0   0  0  0
  71  2  0   0   0   0  0  0
  72  0 13   0   0   0  0  0
  73  0 14   0   0   0  0  0
  74  0 15   0   0   0  0  0
  75  2  0   0   0   0  0  0
  76  0 16   0   0   0  0  0
  77  0 17   0   0   0  0  0
  78  0 18   0   0   0  0  0
  79  2  0   0   0   0  0  0
  80  0 19   0   0   0  0  0
  81  0 20   0   0   0  0  0
  82  0 21   0   0   0  0  0
  83  2  0   0   0   0  0  0
  84  0 22   0   0   0  0  0
  85  0 23   0   0   0  0  0
  86  0 24   0   0   0  0  0
  87  2  0   0   0   0  0  0
  88  0 25   0   0   0  0  0
  89  0 26   0   0   0  0  0
  90  0 27   0   0   0  0  0
  91  2  0   0   0   0  0  0
  92  0 28   0   0   0  0  0
  93  0 29   0   0   0  0  0
  94  0 30   0   0   0  0  0
  95  2  0   0   0   0  0  0
  96  0 31   0   0   0  0  0
  97  0 32   0   0   0  0  0
  98  0 33   0   0   0  0  0
  99  2  0   0   0   0  0  0
 100  0 34   0   0   0  0  0
 101  0 35   0   0   0  0  0
 102  0 36   0   0   0  0  0
 103  2  0   0   0   0  0  0
 104  0 37   0   0   0  0  0
 105  0 38   0   0   0  0  0
 106  0 39   0   0   0  0  0
 107  0  0   1   1   1  0  0
 108  0  0   0   0   0  1  0
 109  1  0   0   0   0  0  0
 110  0 40   0   0   0  0  0
 111  0 41   0   0   0  0  0
 112  0 42   0   0   0  0  0
 113  2  0   0   0   0  0  0
 114  0 43   0   0   0  0  0
 115  0 44   0   0   0  0  0
 116  0 45   0   0   0  0  0
 117  2  0   0   0   0  0  0
 118  0 46   0   0   0  0  0
 119  0 47   0   0   0  0  0
 120  0 48   0   0   0  0  0
 121  2  0   0   0   0  0  0
 122  0 49   0   0   0  0  0
 123  0 50   0   0   0  0  0
 124  0 51   0   0   0  0  0
 125  2  0   0   0   0  0  0
 126  0 52   0   0   0  0  0
 127  0 53   0   0   0  0  0
 128  0 54   0   0   0  0  0
 129  2  0   0   0   0  0  0
 130  0 55   0   0   0  0  0
 131  0 56   0   0   0  0  0
 132  0 57   0   0   0  0  0
 133  2  0   0   0   0  0  0
 134  0 58   0   0   0  0  0
 135  0 59   0   0   0  0  0
 136  0 60   0   0   0  0  0
 137  2  0   0   0   0  0  0
 138  0 61   0   0   0  0  0
 139  0 62   0   0   0  0  0
 140  0 63   0   0   0  0  0
 141  2  0   0   0   0  0  0
 142  0 64   0   0   0  0  0
 143  0 65   0   0   0  0  0
 144  0 66   0   0   0  0  0
 145  2  0   0   0   0  0  0
 146  0 67   0   0   0  0  0
 147  0 68   0   0   0  0  0
 148  0 69   0   0   0  0  0
 149  2  0   0   0   0  0  0
 150  0 70   0   0   0  0  0
 151  0 71   0   0   0  0  0
 152  0 72   0   0   0  0  0
 153  2  0   0   0   0  0  0
 154  0 73   0   0   0  0  0
 155  0 74   0   0   0  0  0
 156  0 75   0   0   0  0  0
 157  2  0   0   0   0  0  0
 158  0 76   0   0   0  0  0
 159  0 77   0   0   0  0  0
 160  0 78   0   0   0  0  0
 161  0  0   1   1   1  0  0
 162  0  0   0   0   0  1  0
 163  1  0   0   0   0  0  0
 164  0 79   0   0   0  0  0
 165  0 80   0   0   0  0  0
 166  0 81   0   0   0  0  0
 167  2  0   0   0   0  0  0
 168  0 82   0   0   0  0  0
 169  0 83   0   0   0  0  0
 170  0 84   0   0   0  0  0
 171  2  0   0   0   0  0  0
 172  0 85   0   0   0  0  0
 173  0 86   0   0   0  0  0
 174  0 87   0   0   0  0  0
 175  2  0   0   0   0  0  0
 176  0 88   0   0   0  0  0
 177  0 89   0   0   0  0  0
 178  0 90   0   0   0  0  0
 179  2  0   0   0   0  0  0
 180  0 91   0   0   0  0  0
 181  0 92   0   0   0  0  0
 182  0 93   0   0   0  0  0
 183  2  0   0   0   0  0  0
 184  0 94   0   0   0  0  0
 185  0 95   0   0   0  0  0
 186  0 96   0   0   0  0  0
 187  2  0   0   0   0  0  0
 188  0 97   0   0   0  0  0
 189  0 98   0   0   0  0  0
 190  0 99   0   0   0  0  0
 191  2  0   0   0   0  0  0
 192  0 100   0   0   0  0  0
 193  0 101   0   0   0  0  0
 194  0 102   0   0   0  0  0
 195  2  0   0   0   0  0  0
 196  0 103   0   0   0  0  0
 197  0 104   0   0   0  0  0
 198  0 105   0   0   0  0  0
 199  2  0   0   0   0  0  0
 200  0 106   0   0   0  0  0
 201  0 107   0   0   0  0  0
 202  0 108   0   0   0  0  0
 203  2  0   0   0   0  0  0
 204  0 109   0   0   0  0  0
 205  0 110   0   0   0  0  0
 206  0 111   0   0   0  0  0
 207  2  0   0   0   0  0  0
 208  0 112   0   0   0  0  0
 209  0 113   0   0   0  0  0
 210  0 114   0   0   0  0  0
 211  2  0   0   0   0  0  0
 212  0 115   0   0   0  0  0
 213  0 116   0   0   0  0  0
 214  0 117   0   0   0  0  0
 215  0  0   1   1   1  0  0
 216  0  0   0   0   0  1  0
 217  1  0   0   0   0  0  0
 218  0 118   0   0   0  0  0
 219  0 119   0   0   0  0  0
 220  0 120   0   0   0  0  0
 221  2  0   0   0   0  0  0
 222  0 121   0   0   0  0  0
 223  0 122   0   0   0  0  0
 224  0 123   0   0   0  0  0
 225  2  0   0   0   0  0  0
 226  0 124   0   0   0  0  0
 227  0 125   0   0   0  0  0
 228  0 126   0   0   0  0  0
 229  2  0   0   0   0  0  0
 230  0 127   0   0   0  0  0
 231  0 128   0   0   0  0  0
 232  0 129   0   0   0  0  0
 233  2  0   0   0   0  0  0
 234  0 130   0   0   0  0  0
 235  0 131   0   0   0  0  0
 236  0 132   0   0   0  0  0
 237  2  0   0   0   0  0  0
 238  0 133   0   0   0  0  0
 239  0 134   0   0   0  0  0
 240  0 135   0   0   0  0  0
 241  2  0   0   0   0  0  0
 242  0 136   0   0   0  0  0
 243  0 137   0   0   0  0  0
 244  0 138   0   0   0  0  0
 245  2  0   0   0   0  0  0
 246  0 139   0   0   0  0  0
 247  0 140   0   0   0  0  0
 248  0 141   0   0   0  0  0
 249  2  0   0   0   0  0  0
 250  0 142   0   0   0  0  0
 251  0 143   0   0   0  0  0
 252  0 144   0   0   0  0  0
 253  2  0   0   0   0  0  0
 254  0 145   0   0   0  0  0
 255  0 146   0   0   0  0  0
 256  0 147   0   0   0  0  0
 257  2  0   0   0   0  0  0
 258  0 148   0   0   0  0  0
 259  0 149   0   0   0  0  0
 260  0 150   0   0   0  0  0
 261  2  0   0   0   0  0  0
 262  0 151   0   0   0  0  0
 263  0 152   0   0   0  0  0
 264  0 153   0   0   0  0  0
 265  2  0   0   0   0  0  0
 266  0 154   0   0   0  0  0
 267  0 155   0   0   0  0  0
 268  0 156   0   0   0  0  0
 269  0  0   1   1   1  0  0
 270  0  0   0   0   0  1  0
 271  1  0   0   0   0  0  0
 272  0 118   0   0   0  0  0
 273  0 119   0   0   0  0  0
 274  0 120   0   0   0  0  0
 275  2  0   0   0   0  0  0
 276  0 121   0   0   0  0  0
 277  0 122   0   0   0  0  0
 278  0 123   0   0   0  0  0
 279  2  0   0   0   0  0  0
 280  0 124   0   0   0  0  0
 281  0 125   0   0   0  0  0
 282  0 126   0   0   0  0  0
 283  2  0   0   0   0  0  0
 284  0 127   0   0   0  0  0
 285  0 128   0   0   0  0  0
 286  0 129   0   0   0  0  0
 287  2  0   0   0   0  0  0
 288  0 130   0   0   0  0  0
 289  0 131   0   0   0  0  0
 290  0 132   0   0   0  0  0
 291  2  0   0   0   0  0  0
 292  0 133   0   0   0  0  0
 293  0 134   0   0   0  0  0
 294  0 135   0   0   0  0  0
 295  2  0   0   0   0  0  0
 296  0 136   0   0   0  0  0
 297  0 137   0   0   0  0  0
 298  0 138   0   0   0  0  0
 299  2  0   0   0   0  0  0
 300  0 139   0   0   0  0  0
 301  0 140   0   0   0  0  0
 302  0 141   0   0   0  0  0
 303  2  0   0   0   0  0  0
 304  0 142   0   0   0  0  0
 305  0 143   0   0   0  0  0
 306  0 144   0   0   0  0  0
 307  2  0   0   0   0  0  0
 308  0 145   0   0   0  0  0
 309  0 146   0   0   0  0  0
 310  0 147   0   0   0  0  0
 311  2  0   0   0   0  0  0
 312  0 148   0   0   0  0  0
 313  0 149   0   0   0  0  0
 314  0 150   0   0   0  0  0
 315  2  0   0   0   0  0  0
[RF]
1      34.8022 1 2 200 0 -0.698132
2      85.1528 3 4 200 383.188 0.872665
3      34.8022 1 2 200 0 4.44629
4      34.8022 1 2 200 0 0.174533
5      85.1528 3 4 200 383.188 1.74533
6      34.8022 1 2 200 0 5.31895
7      34.8022 1 2 200 0 1.0472
8      85.1528 3 4 200 383.188 2.61799
9      34.8022 1 2 200 0 6.19162
10      34.8022 1 2 200 0 1.91986
11      85.1528 3 4 200 383.188 3.49066
12      34.8022 1 2 200 0 7.06428
13      34.8022 1 2 200 0 2.79253
14      85.1528 3 4 200 383.188 4.36332
15      34.8022 1 2 200 0 7.93695
16      34.8022 1 2 200 0 3.66519
17      85.1528 3 4 200 383.188 5.23599
18      34.8022 1 2 200 0 8.80961
19      34.8022 1 2 200 0 4.53786
20      85.1528 3 4 200 383.188 6.10865
21      34.8022 1 2 200 0 9.68228
22      34.8022 1 2 200 0 5.41052
23      85.1528 3 4 200 383.188 6.98132
24      34.8022 1 2 200 0 10.5549
25      34.8022 1 2 200 0 6.28319
26      85.1528 3 4 200 383.188 7.85398
27      34.8022 1 2 200 0 11.4276
28      34.8022 1 2 200 0 7.15585
29      85.1528 3 4 200 383.188 8.72665
30      34.8022 1 2 200 0 12.3003
31      34.8022 1 2 200 0 8.02851
32      85.1528 3 4 200 383.188 9.59931
33      34.8022 1 2 200 0 13.1729
34      34.8022 1 2 200 0 8.90118
35      85.1528 3 4 200 383.188 10.472
36      34.8022 1 2 200 0 14.0456
37      34.8022 1 2 200 0 9.77384
38      85.1528 3 4 200 383.188 11.3446
39      34.8022 1 2 200 0 14.9183
40      29.7125 1 2 200 0 -0.698132
41      72.3799 3 4 200 383.188 0.872665
42      29.7125 1 2 200 0 4.44629
43      29.7125 1 2 200 0 0.174533
44      72.3799 3 4 200 383.188 1.74533
45      29.7125 1 2 200 0 5.31895
46      29.7125 1 2 200 0 1.0472
47      72.3799 3 4 200 383.188 2.61799
48      29.7125 1 2 200 0 6.19162
49      29.7125 1 2 200 0 1.91986
50      72.3799 3 4 200 383.188 3.49066
51      29.7125 1 2 200 0 7.06428
52      29.7125 1 2 200 0 2.79253
53      72.3799 3 4 200 383.188 4.36332
54      29.7125 1 2 200 0 7.93695
55      29.7125 1 2 200 0 3.66519
56      72.3799 3 4 200 383.188 5.23599
57      29.7125 1 2 200 0 8.80961
58      29.7125 1 2 200 0 4.53786
59      72.3799 3 4 200 383.188 6.10865
60      29.7125 1 2 200 0 9.68228
61      29.7125 1 2 200 0 5.41052
62      72.3799 3 4 200 383.188 6.98132
63      29.7125 1 2 200 0 10.5549
64      29.7125 1 2 200 0 6.28319
65      72.3799 3 4 200 383.188 7.85398
66      29.7125 1 2 200 0 11.4276
67      29.7125 1 2 200 0 7.15585
68      72.3799 3 4 200 383.188 8.72665
69      29.7125 1 2 200 0 12.3003
70      29.7125 1 2 200 0 8.02851
71      72.3799 3 4 200 383.188 9.59931
72      29.7125 1 2 200 0 13.1729
73      29.7125 1 2 200 0 8.90118
74      72.3799 3 4 200 383.188 10.472
75      29.7125 1 2 200 0 14.0456
76      29.7125 1 2 200 0 9.77384
77      72.3799 3 4 200 383.188 11.3446
78      29.7125 1 2 200 0 14.9183
79      26.2842 1 2 200 0 -0.698132
80      63.8646 3 4 200 383.188 0.872665
81      26.2842 1 2 200 0 4.44629
82      26.2842 1 2 200 0 0.174533
83      63.8646 3 4 200 383.188 1.74533
84      26.2842 1 2 200 0 5.31895
85      26.2842 1 2 200 0 1.0472
86      63.8646 3 4 200 383.188 2.61799
87      26.2842 1 2 200 0 6.19162
88      26.2842 1 2 200 0 1.91986
89      63.8646 3 4 200 383.188 3.49066
90      26.2842 1 2 200 0 7.06428
91      26.2842 1 2 200 0 2.79253
92      63.8646 3 4 200 383.188 4.36332
93      26.2842 1 2 200 0 7.93695
94      26.2842 1 2 200 0 3.66519
95      63.8646 3 4 200 383.188 5.23599
96      26.2842 1 2 200 0 8.80961
97      26.2842 1 2 200 0 4.53786
98      63.8646 3 4 200 383.188 6.10865
99      26.2842 1 2 200 0 9.68228
100      26.2842 1 2 200 0 5.41052
101      63.8646 3 4 200 383.188 6.98132
102      26.2842 1 2 200 0 10.5549
103      26.2842 1 2 200 0 6.28319
104      63.8646 3 4 200 383.188 7.85398
105      26.2842 1 2 200 0 11.4276
106      26.2842 1 2 200 0 7.15585
107      63.8646 3 4 200 383.188 8.72665
108      26.2842 1 2 200 0 12.3003
109      26.2842 1 2 200 0 8.02851
110      63.8646 3 4 200 383.188 9.59931
111      26.2842 1 2 200 0 13.1729
112      26.2842 1 2 200 0 8.90118
113      63.8646 3 4 200 383.188 10.472
114      26.2842 1 2 200 0 14.0456
115      26.2842 1 2 200 0 9.77384
116      63.8646 3 4 200 383.188 11.3446
117      26.2842 1 2 200 0 14.9183
118      21.0962 1 2 200 0 -0.698132
119      51.0917 3 4 200 383.188 0.872665
120      21.0962 1 2 200 0 4.44629
121      21.0962 1 2 200 0 0.174533
122      51.0917 3 4 200 383.188 1.74533
123      21.0962 1 2 200 0 5.31895
124      21.0962 1 2 200 0 1.0472
125      51.0917 3 4 200 383.188 2.61799
126      21.0962 1 2 200 0 6.19162
127      21.0962 1 2 200 0 1.91986
128      51.0917 3 4 200 383.188 3.49066
129      21.0962 1 2 200 0 7.06428
130      21.0962 1 2 200 0 2.79253
131      51.0917 3 4 200 383.188 4.36332
132      21.0962 1 2 200 0 7.93695
133      21.0962 1 2 200 0 3.66519
134      51.0917 3 4 200 383.188 5.23599
135      21.0962 1 2 200 0 8.80961
136      21.0962 1 2 200 0 4.53786
137      51.0917 3 4 200 383.188 6.10865
138      21.0962 1 2 200 0 9.68228
139      21.0962 1 2 200 0 5.41052
140      51.0917 3 4 200 383.188 6.98132
141      21.0962 1 2 200 0 10.5549
142      21.0962 1 2 200 0 6.28319
143      51.0917 3 4 200 383.188 7.85398
144      21.0962 1 2 200 0 11.4276
145      21.0962 1 2 200 0 7.15585
146      51.0917 3 4 200 383.188 8.72665
147      21.0962 1 2 200 0 12.3003
148      21.0962 1 2 200 0 8.02851
149      51.0917 3 4 200 383.188 9.59931
150      21.0962 1 2 200 0 13.1729
151      21.0962 1 2 200 0 8.90118
152      51.0917 3 4 200 383.188 10.472
153      21.0962 1 2 200 0 14.0456
154      21.0962 1 2 200 0 9.77384
155      51.0917 3 4 200 383.188 11.3446
156      21.0962 1 2 200 0 14.9183
157      51.2082 1 2 200 0 -0.698132
158      127.729 3 4 200 383.188 0.872665
159      51.2082 1 2 200 0 4.44629
160      51.2082 1 2 200 0 0.174533
161      127.729 3 4 200 383.188 1.74533
162      51.2082 1 2 200 0 5.31895
163      51.2082 1 2 200 0 1.0472
164      127.729 3 4 200 383.188 2.61799
165      51.2082 1 2 200 0 6.19162
166      51.2082 1 2 200 0 1.91986
167      127.729 3 4 200 383.188 3.49066
168      51.2082 1 2 200 0 7.06428
169      51.2082 1 2 200 0 2.79253
170      127.729 3 4 200 383.188 4.36332
171      51.2082 1 2 200 0 7.93695
172      51.2082 1 2 200 0 3.66519
173      127.729 3 4 200 383.188 5.23599
174      51.2082 1 2 200 0 8.80961
175      51.2082 1 2 200 0 4.53786
176      127.729 3 4 200 383.188 6.10865
177      51.2082 1 2 200 0 9.68228
178      51.2082 1 2 200 0 5.41052
179      127.729 3 4 200 383.188 6.98132
180      51.2082 1 2 200 0 10.5549
181      51.2082 1 2 200 0 6.28319
182      127.729 3 4 200 383.188 7.85398
183      51.2082 1 2 200 0 11.4276
184      51.2082 1 2 200 0 7.15585
185      127.729 3 4 200 383.188 8.72665
186      51.2082 1 2 200 0 12.3003
187      51.2082 1 2 200 0 8.02851
188      127.729 3 4 200 383.188 9.59931
189      51.2082 1 2 200 0 13.1729
190      51.2082 1 2 200 0 8.90118
191      127.729 3 4 200 383.188 10.472
192      51.2082 1 2 200 0 14.0456
193      51.2082 1 2 200 0 9.77384
194      127.729 3 4 200 383.188 11.3446
195      51.2082 1 2 200 0 14.9183
196      8.83286 1 2 200 0 -0.698132
197      21.2882 3 4 200 383.188 0.872665
198      8.83286 1 2 200 0 4.44629
199      8.83286 1 2 200 0 0.174533
200      21.2882 3 4 200 383.188 1.74533
201      8.83286 1 2 200 0 5.31895
202      8.83286 1 2 200 0 1.0472
203      21.2882 3 4 200 383.188 2.61799
204      8.83286 1 2 200 0 6.19162
205      8.83286 1 2 200 0 1.91986
206      21.2882 3 4 200 383.188 3.49066
207      8.83286 1 2 200 0 7.06428
208      8.83286 1 2 200 0 2.79253
209      21.2882 3 4 200 383.188 4.36332
210      8.83286 1 2 200 0 7.93695
211      8.83286 1 2 200 0 3.66519
212      21.2882 3 4 200 383.188 5.23599
213      8.83286 1 2 200 0 8.80961
214      8.83286 1 2 200 0 4.53786
215      21.2882 3 4 200 383.188 6.10865
216      8.83286 1 2 200 0 9.68228
217      8.83286 1 2 200 0 5.41052
218      21.2882 3 4 200 383.188 6.98132
219      8.83286 1 2 200 0 10.5549
220      8.83286 1 2 200 0 6.28319
221      21.2882 3 4 200 383.188 7.85398
222      8.83286 1 2 200 0 11.4276
223      8.83286 1 2 200 0 7.15585
224      21.2882 3 4 200 383.188 8.72665
225      8.83286 1 2 200 0 12.3003
226      8.83286 1 2 200 0 8.02851
227      21.2882 3 4 200 383.188 9.59931
228      8.83286 1 2 200 0 13.1729
229      8.83286 1 2 200 0 8.90118
230      21.2882 3 4 200 383.188 10.472
231      8.83286 1 2 200 0 14.0456
232      8.83286 1 2 200 0 9.77384
233      21.2882 3 4 200 383.188 11.3446
234      8.83286 1 2 200 0 14.9183
235      17.6116 1 2 200 0 -0.698132
236      42.5764 3 4 200 383.188 0.872665
237      17.6116 1 2 200 0 4.44629
238      17.6116 1 2 200 0 0.174533
239      42.5764 3 4 200 383.188 1.74533
240      17.6116 1 2 200 0 5.31895
241      17.6116 1 2 200 0 1.0472
242      42.5764 3 4 200 383.188 2.61799
243      17.6116 1 2 200 0 6.19162
244      17.6116 1 2 200 0 1.91986
245      42.5764 3 4 200 383.188 3.49066
246      17.6116 1 2 200 0 7.06428
247      17.6116 1 2 200 0 2.79253
248      42.5764 3 4 200 383.188 4.36332
249      17.6116 1 2 200 0 7.93695
250      17.6116 1 2 200 0 3.66519
251      42.5764 3 4 200 383.188 5.23599
252      17.6116 1 2 200 0 8.80961
253      17.6116 1 2 200 0 4.53786
254      42.5764 3 4 200 383.188 6.10865
255      17.6116 1 2 200 0 9.68228
256      17.6116 1 2 200 0 5.41052
257      42.5764 3 4 200 383.188 6.98132
258      17.6116 1 2 200 0 10.5549
259      17.6116 1 2 200 0 6.28319
260      42.5764 3 4 200 383.188 7.85398
261      17.6116 1 2 200 0 11.4276
262      17.6116 1 2 200 0 7.15585
263      42.5764 3 4 200 383.188 8.72665
264      17.6116 1 2 200 0 12.3003
265      17.6116 1 2 200 0 8.02851
266      42.5764 3 4 200 383.188 9.59931
267      17.6116 1 2 200 0 13.1729
268      17.6116 1 2 200 0 8.90118
269      42.5764 3 4 200 383.188 10.472
270      17.6116 1 2 200 0 14.0456
271      17.6116 1 2 200 0 9.77384
272      42.5764 3 4 200 383.188 11.3446
273      17.6116 1 2 200 0 14.9183
274      38.1563 1 2 200 0 -0.698132
275      93.6681 3 4 200 383.188 0.872665
276      38.1563 1 2 200 0 4.44629
277      38.1563 1 2 200 0 0.174533
278      93.6681 3 4 200 383.188 1.74533
279      38.1563 1 2 200 0 5.31895
280      38.1563 1 2 200 0 1.0472
281      93.6681 3 4 200 383.188 2.61799
282      38.1563 1 2 200 0 6.19162
283      38.1563 1 2 200 0 1.91986
284      93.6681 3 4 200 383.188 3.49066
285      38.1563 1 2 200 0 7.06428
286      38.1563 1 2 200 0 2.79253
287      93.6681 3 4 200 383.188 4.36332
288      38.1563 1 2 200 0 7.93695
289      38.1563 1 2 200 0 3.66519
290      93.6681 3 4 200 383.188 5.23599
291      38.1563 1 2 200 0 8.80961
292      38.1563 1 2 200 0 4.53786
293      93.6681 3 4 200 383.188 6.10865
294      38.1563 1 2 200 0 9.68228
295      38.1563 1 2 200 0 5.41052
296      93.6681 3 4 200 383.188 6.98132
297      38.1563 1 2 200 0 10.5549
298      38.1563 1 2 200 0 6.28319
299      93.6681 3 4 200 383.188 7.85398
300      38.1563 1 2 200 0 11.4276
301      38.1563 1 2 200 0 7.15585
302      93.6681 3 4 200 383.188 8.72665
303      38.1563 1 2 200 0 12.3003
304      38.1563 1 2 200 0 8.02851
305      93.6681 3 4 200 383.188 9.59931
306      38.1563 1 2 200 0 13.1729
307      38.1563 1 2 200 0 8.90118
308      93.6681 3 4 200 383.188 10.472
309      38.1563 1 2 200 0 14.0456
310      38.1563 1 2 200 0 9.77384
311      93.6681 3 4 200 383.188 11.3446
312      38.1563 1 2 200 0 14.9183
313      54.3698 1 2 200 0 -0.698132
314      136.244 3 4 200 383.188 0.872665
315      54.3698 1 2 200 0 4.44629
316      54.3698 1 2 200 0 0.174533
317      136.244 3 4 200 383.188 1.74533
318      54.3698 1 2 200 0 5.31895
319      54.3698 1 2 200 0 1.0472
320      136.244 3 4 200 383.188 2.61799
321      54.3698 1 2 200 0 6.19162
322      54.3698 1 2 200 0 1.91986
323      136.244 3 4 200 383.188 3.49066
324      54.3698 1 2 200 0 7.06428
325      54.3698 1 2 200 0 2.79253
326      136.244 3 4 200 383.188 4.36332
327      54.3698 1 2 200 0 7.93695
328      54.3698 1 2 200 0 3.66519
329      136.244 3 4 200 383.188 5.23599
330      54.3698 1 2 200 0 8.80961
331      54.3698 1 2 200 0 4.53786
332      136.244 3 4 200 383.188 6.10865
333      54.3698 1 2 200 0 9.68228
334      54.3698 1 2 200 0 5.41052
335      136.244 3 4 200 383.188 6.98132
336      54.3698 1 2 200 0 10.5549
337      54.3698 1 2 200 0 6.28319
338      136.244 3 4 200 383.188 7.85398
339      54.3698 1 2 200 0 11.4276
340      54.3698 1 2 200 0 7.15585
341      136.244 3 4 200 383.188 8.72665
342      54.3698 1 2 200 0 12.3003
343      54.3698 1 2 200 0 8.02851
344      136.244 3 4 200 383.188 9.59931
345      54.3698 1 2 200 0 13.1729
346      54.3698 1 2 200 0 8.90118
347      136.244 3 4 200 383.188 10.472
348      54.3698 1 2 200 0 14.0456
349      54.3698 1 2 200 0 9.77384
350      136.244 3 4 200 383.188 11.3446
351      54.3698 1 2 200 0 14.9183
352      12.3538 1 2 200 0 -0.698132
353      29.8035 3 4 200 383.188 0.872665
354      12.3538 1 2 200 0 4.44629
355      12.3538 1 2 200 0 0.174533
356      29.8035 3 4 200 383.188 1.74533
357      12.3538 1 2 200 0 5.31895
358      12.3538 1 2 200 0 1.0472
359      29.8035 3 4 200 383.188 2.61799
360      12.3538 1 2 200 0 6.19162
361      12.3538 1 2 200 0 1.91986
362      29.8035 3 4 200 383.188 3.49066
363      12.3538 1 2 200 0 7.06428
364      12.3538 1 2 200 0 2.79253
365      29.8035 3 4 200 383.188 4.36332
366      12.3538 1 2 200 0 7.93695
367      12.3538 1 2 200 0 3.66519
368      29.8035 3 4 200 383.188 5.23599
369      12.3538 1 2 200 0 8.80961
370      12.3538 1 2 200 0 4.53786
371      29.8035 3 4 200 383.188 6.10865
372      12.3538 1 2 200 0 9.68228
373      12.3538 1 2 200 0 5.41052
374      29.8035 3 4 200 383.188 6.98132
375      12.3538 1 2 200 0 10.5549
376      12.3538 1 2 200 0 6.28319
377      29.8035 3 4 200 383.188 7.85398
378      12.3538 1 2 200 0 11.4276
379      12.3538 1 2 200 0 7.15585
380      29.8035 3 4 200 383.188 8.72665
381      12.3538 1 2 200 0 12.3003
382      12.3538 1 2 200 0 8.02851
383      29.8035 3 4 200 383.188 9.59931
384      12.3538 1 2 200 0 13.1729
385      12.3538 1 2 200 0 8.90118
386      29.8035 3 4 200 383.188 10.472
387      12.3538 1 2 200 0 14.0456
388      12.3538 1 2 200 0 9.77384
389      29.8035 3 4 200 383.188 11.3446
390      12.3538 1 2 200 0 14.9183
391      43.1225 1 2 200 0 -0.698132
392      106.441 3 4 200 383.188 0.872665
393      43.1225 1 2 200 0 4.44629
394      43.1225 1 2 200 0 0.174533
395      106.441 3 4 200 383.188 1.74533
396      43.1225 1 2 200 0 5.31895
397      43.1225 1 2 200 0 1.0472
398      106.441 3 4 200 383.188 2.61799
399      43.1225 1 2 200 0 6.19162
400      43.1225 1 2 200 0 1.91986
401      106.441 3 4 200 383.188 3.49066
402      43.1225 1 2 200 0 7.06428
403      43.1225 1 2 200 0 2.79253
404      106.441 3 4 200 383.188 4.36332
405      43.1225 1 2 200 0 7.93695
406      43.1225 1 2 200 0 3.66519
407      106.441 3 4 200 383.188 5.23599
408      43.1225 1 2 200 0 8.80961
409      43.1225 1 2 200 0 4.53786
410      106.441 3 4 200 383.188 6.10865
411      43.1225 1 2 200 0 9.68228
412      43.1225 1 2 200 0 5.41052
413      106.441 3 4 200 383.188 6.98132
414      43.1225 1 2 200 0 10.5549
415      43.1225 1 2 200 0 6.28319
416      106.441 3 4 200 383.188 7.85398
417      43.1225 1 2 200 0 11.4276
418      43.1225 1 2 200 0 7.15585
419      106.441 3 4 200 383.188 8.72665
420      43.1225 1 2 200 0 12.3003
421      43.1225 1 2 200 0 8.02851
422      106.441 3 4 200 383.188 9.59931
423      43.1225 1 2 200 0 13.1729
424      43.1225 1 2 200 0 8.90118
425      106.441 3 4 200 383.188 10.472
426      43.1225 1 2 200 0 14.0456
427      43.1225 1 2 200 0 9.77384
428      106.441 3 4 200 383.188 11.3446
429      43.1225 1 2 200 0 14.9183
430      3.53619 1 2 200 0 -0.698132
431      8.51528 3 4 200 383.188 0.872665
432      3.53619 1 2 200 0 4.44629
433      3.53619 1 2 200 0 0.174533
434      8.51528 3 4 200 383.188 1.74533
435      3.53619 1 2 200 0 5.31895
436      3.53619 1 2 200 0 1.0472
437      8.51528 3 4 200 383.188 2.61799
438      3.53619 1 2 200 0 6.19162
439      3.53619 1 2 200 0 1.91986
440      8.51528 3 4 200 383.188 3.49066
441      3.53619 1 2 200 0 7.06428
442      3.53619 1 2 200 0 2.79253
443      8.51528 3 4 200 383.188 4.36332
444      3.53619 1 2 200 0 7.93695
445      3.53619 1 2 200 0 3.66519
446      8.51528 3 4 200 383.188 5.23599
447      3.53619 1 2 200 0 8.80961
448      3.53619 1 2 200 0 4.53786
449      8.51528 3 4 200 383.188 6.10865
450      3.53619 1 2 200 0 9.68228
451      3.53619 1 2 200 0 5.41052
452      8.51528 3 4 200 383.188 6.98132
453      3.53619 1 2 200 0 10.5549
454      3.53619 1 2 200 0 6.28319
455      8.51528 3 4 200 383.188 7.85398
456      3.53619 1 2 200 0 11.4276
457      3.53619 1 2 200 0 7.15585
458      8.51528 3 4 200 383.188 8.72665
459      3.53619 1 2 200 0 12.3003
460      3.53619 1 2 200 0 8.02851
461      8.51528 3 4 200 383.188 9.59931
462      3.53619 1 2 200 0 13.1729
463      3.53619 1 2 200 0 8.90118
464      8.51528 3 4 200 383.188 10.472
465      3.53619 1 2 200 0 14.0456
466      3.53619 1 2 200 0 9.77384
467      8.51528 3 4 200 383.188 11.3446
468      3.53619 1 2 200 0 14.9183
469      66.5625 1 2 200 0 -0.698132
470      170.306 3 4 200 383.188 0.872665
471      66.5625 1 2 200 0 4.44629
472      66.5625 1 2 200 0 0.174533
473      170.306 3 4 200 383.188 1.74533
474      66.5625 1 2 200 0 5.31895
475      66.5625 1 2 200 0 1.0472
476      170.306 3 4 200 383.188 2.61799
477      66.5625 1 2 200 0 6.19162
478      66.5625 1 2 200 0 1.91986
479      170.306 3 4 200 383.188 3.49066
480      66.5625 1 2 200 0 7.06428
481      66.5625 1 2 200 0 2.79253
482      170.306 3 4 200 383.188 4.36332
483      66.5625 1 2 200 0 7.93695
484      66.5625 1 2 200 0 3.66519
485      170.306 3 4 200 383.188 5.23599
486      66.5625 1 2 200 0 8.80961
487      66.5625 1 2 200 0 4.53786
488      170.306 3 4 200 383.188 6.10865
489      66.5625 1 2 200 0 9.68228
490      66.5625 1 2 200 0 5.41052
491      170.306 3 4 200 383.188 6.98132
492      66.5625 1 2 200 0 10.5549
493      66.5625 1 2 200 0 6.28319
494      170.306 3 4 200 383.188 7.85398
495      66.5625 1 2 200 0 11.4276
496      66.5625 1 2 200 0 7.15585
497      170.306 3 4 200 383.188 8.72665
498      66.5625 1 2 200 0 12.3003
499      66.5625 1 2 200 0 8.02851
500      170.306 3 4 200 383.188 9.59931
501      66.5625 1 2 200 0 13.1729
502      66.5625 1 2 200 0 8.90118
503      170.306 3 4 200 383.188 10.472
504      66.5625 1 2 200 0 14.0456
505      66.5625 1 2 200 0 9.77384
506      170.306 3 4 200 383.188 11.3446
507      66.5625 1 2 200 0 14.9183
508      59.0292 1 2 200 0 -0.698132
509      149.017 3 4 200 383.188 0.872665
510      59.0292 1 2 200 0 4.44629
511      59.0292 1 2 200 0 0.174533
512      149.017 3 4 200 383.188 1.74533
513      59.0292 1 2 200 0 5.31895
514      59.0292 1 2 200 0 1.0472
515      149.017 3 4 200 383.188 2.61799
516      59.0292 1 2 200 0 6.19162
517      59.0292 1 2 200 0 1.91986
518      149.017 3 4 200 383.188 3.49066
519      59.0292 1 2 200 0 7.06428
520      59.0292 1 2 200 0 2.79253
521      149.017 3 4 200 383.188 4.36332
522      59.0292 1 2 200 0 7.93695
523      59.0292 1 2 200 0 3.66519
524      149.017 3 4 200 383.188 5.23599
525      59.0292 1 2 200 0 8.80961
526      59.0292 1 2 200 0 4.53786
527      149.017 3 4 200 383.188 6.10865
528      59.0292 1 2 200 0 9.68228
529      59.0292 1 2 200 0 5.41052
530      149.017 3 4 200 383.188 6.98132
531      59.0292 1 2 200 0 10.5549
532      59.0292 1 2 200 0 6.28319
533      149.017 3 4 200 383.188 7.85398
534      59.0292 1 2 200 0 11.4276
535      59.0292 1 2 200 0 7.15585
536      149.017 3 4 200 383.188 8.72665
537      59.0292 1 2 200 0 12.3003
538      59.0292 1 2 200 0 8.02851
539      149.017 3 4 200 383.188 9.59931
540      59.0292 1 2 200 0 13.1729
541      59.0292 1 2 200 0 8.90118
542      149.017 3 4 200 383.188 10.472
