# Pulseq sequence file
# Created by MATLAB mr toolbox

# Created for Pulseq-CEST
# https://pulseq-cest.github.io/
# Created by: Felix Glang
# Created at: 28-Sep-2021 14:46:41

[VERSION]
major 1
minor 3
revision 1

[DEFINITIONS]
B0 9.4 
B1rms 1.21436477 
DCsat 0.5 
M0_offset -300 
Trec 3.5 
Trec_M0 12 
Tsat 3.35 
n_pulses 34 
num_meas 74 
offsets_ppm -300 -50 -30 -20 -12 -8 -6 -5.6 -5.3 -5 -4.7 -4.4 -4.1 -3.8 -3.5 -3.2 -2.9 -2.6 -2.3 -2.1 -2 -1.7 -1.4 -1.15 -1 -0.85 -0.75 -0.5 -0.2 0 0.2 0.5 0.6 0.7 0.8 1 1.15 1.3 1.45 1.6 1.75 1.9 2 2.1 2.25 2.4 2.55 2.7 2.85 3 3.15 3.3 3.4 3.5 3.6 3.7 3.85 4 4.15 4.3 4.45 4.6 4.75 4.9 5 5.15 5.3 5.45 6.25 8 12 20 30 50 
seq_id_string MultiPool_9p4T_001_multiB1sat_34Gauss_DC50_3p4s_brain 
td 0.05 
tp 0.05 

# Format of blocks:
#  #  D RF  GX  GY  GZ ADC EXT
[BLOCKS]
    1  1  0   0   0   0  0  0
    2  0  1   0   0   0  0  0
    3  2  0   0   0   0  0  0
    4  0  2   0   0   0  0  0
    5  2  0   0   0   0  0  0
    6  0  3   0   0   0  0  0
    7  2  0   0   0   0  0  0
    8  0  4   0   0   0  0  0
    9  2  0   0   0   0  0  0
   10  0  5   0   0   0  0  0
   11  2  0   0   0   0  0  0
   12  0  6   0   0   0  0  0
   13  2  0   0   0   0  0  0
   14  0  7   0   0   0  0  0
   15  2  0   0   0   0  0  0
   16  0  8   0   0   0  0  0
   17  2  0   0   0   0  0  0
   18  0  9   0   0   0  0  0
   19  2  0   0   0   0  0  0
   20  0 10   0   0   0  0  0
   21  2  0   0   0   0  0  0
   22  0 11   0   0   0  0  0
   23  2  0   0   0   0  0  0
   24  0 12   0   0   0  0  0
   25  2  0   0   0   0  0  0
   26  0 13   0   0   0  0  0
   27  2  0   0   0   0  0  0
   28  0 14   0   0   0  0  0
   29  2  0   0   0   0  0  0
   30  0 15   0   0   0  0  0
   31  2  0   0   0   0  0  0
   32  0 16   0   0   0  0  0
   33  2  0   0   0   0  0  0
   34  0 17   0   0   0  0  0
   35  2  0   0   0   0  0  0
   36  0 18   0   0   0  0  0
   37  2  0   0   0   0  0  0
   38  0 19   0   0   0  0  0
   39  2  0   0   0   0  0  0
   40  0 20   0   0   0  0  0
   41  2  0   0   0   0  0  0
   42  0 21   0   0   0  0  0
   43  2  0   0   0   0  0  0
   44  0 22   0   0   0  0  0
   45  2  0   0   0   0  0  0
   46  0 23   0   0   0  0  0
   47  2  0   0   0   0  0  0
   48  0 24   0   0   0  0  0
   49  2  0   0   0   0  0  0
   50  0 25   0   0   0  0  0
   51  2  0   0   0   0  0  0
   52  0 26   0   0   0  0  0
   53  2  0   0   0   0  0  0
   54  0 27   0   0   0  0  0
   55  2  0   0   0   0  0  0
   56  0 28   0   0   0  0  0
   57  2  0   0   0   0  0  0
   58  0 29   0   0   0  0  0
   59  2  0   0   0   0  0  0
   60  0 30   0   0   0  0  0
   61  2  0   0   0   0  0  0
   62  0 31   0   0   0  0  0
   63  2  0   0   0   0  0  0
   64  0 32   0   0   0  0  0
   65  2  0   0   0   0  0  0
   66  0 33   0   0   0  0  0
   67  2  0   0   0   0  0  0
   68  0 34   0   0   0  0  0
   69  0  0   1   1   1  0  0
   70  0  0   0   0   0  1  0
   71  0 35   0   0   0  0  0
   72  2  0   0   0   0  0  0
   73  0 36   0   0   0  0  0
   74  2  0   0   0   0  0  0
   75  0 37   0   0   0  0  0
   76  2  0   0   0   0  0  0
   77  0 38   0   0   0  0  0
   78  2  0   0   0   0  0  0
   79  0 39   0   0   0  0  0
   80  2  0   0   0   0  0  0
   81  0 40   0   0   0  0  0
   82  2  0   0   0   0  0  0
   83  0 41   0   0   0  0  0
   84  2  0   0   0   0  0  0
   85  0 42   0   0   0  0  0
   86  2  0   0   0   0  0  0
   87  0 43   0   0   0  0  0
   88  2  0   0   0   0  0  0
   89  0 44   0   0   0  0  0
   90  2  0   0   0   0  0  0
   91  0 45   0   0   0  0  0
   92  2  0   0   0   0  0  0
   93  0 46   0   0   0  0  0
   94  2  0   0   0   0  0  0
   95  0 47   0   0   0  0  0
   96  2  0   0   0   0  0  0
   97  0 48   0   0   0  0  0
   98  2  0   0   0   0  0  0
   99  0 49   0   0   0  0  0
  100  2  0   0   0   0  0  0
  101  0 50   0   0   0  0  0
  102  2  0   0   0   0  0  0
  103  0 51   0   0   0  0  0
  104  2  0   0   0   0  0  0
  105  0 52   0   0   0  0  0
  106  2  0   0   0   0  0  0
  107  0 53   0   0   0  0  0
  108  2  0   0   0   0  0  0
  109  0 54   0   0   0  0  0
  110  2  0   0   0   0  0  0
  111  0 55   0   0   0  0  0
  112  2  0   0   0   0  0  0
  113  0 56   0   0   0  0  0
  114  2  0   0   0   0  0  0
  115  0 57   0   0   0  0  0
  116  2  0   0   0   0  0  0
  117  0 58   0   0   0  0  0
  118  2  0   0   0   0  0  0
  119  0 59   0   0   0  0  0
  120  2  0   0   0   0  0  0
  121  0 60   0   0   0  0  0
  122  2  0   0   0   0  0  0
  123  0 61   0   0   0  0  0
  124  2  0   0   0   0  0  0
  125  0 62   0   0   0  0  0
  126  2  0   0   0   0  0  0
  127  0 63   0   0   0  0  0
  128  2  0   0   0   0  0  0
  129  0 64   0   0   0  0  0
  130  2  0   0   0   0  0  0
  131  0 65   0   0   0  0  0
  132  2  0   0   0   0  0  0
  133  0 66   0   0   0  0  0
  134  2  0   0   0   0  0  0
  135  0 67   0   0   0  0  0
  136  2  0   0   0   0  0  0
  137  0 68   0   0   0  0  0
  138  0  0   1   1   1  0  0
  139  0  0   0   0   0  1  0
  140  0 69   0   0   0  0  0
  141  2  0   0   0   0  0  0
  142  0 70   0   0   0  0  0
  143  2  0   0   0   0  0  0
  144  0 71   0   0   0  0  0
  145  2  0   0   0   0  0  0
  146  0 72   0   0   0  0  0
  147  2  0   0   0   0  0  0
  148  0 73   0   0   0  0  0
  149  2  0   0   0   0  0  0
  150  0 74   0   0   0  0  0
  151  2  0   0   0   0  0  0
  152  0 75   0   0   0  0  0
  153  2  0   0   0   0  0  0
  154  0 76   0   0   0  0  0
  155  2  0   0   0   0  0  0
  156  0 77   0   0   0  0  0
  157  2  0   0   0   0  0  0
  158  0 78   0   0   0  0  0
  159  2  0   0   0   0  0  0
  160  0 79   0   0   0  0  0
  161  2  0   0   0   0  0  0
  162  0 80   0   0   0  0  0
  163  2  0   0   0   0  0  0
  164  0 81   0   0   0  0  0
  165  2  0   0   0   0  0  0
  166  0 82   0   0   0  0  0
  167  2  0   0   0   0  0  0
  168  0 83   0   0   0  0  0
  169  2  0   0   0   0  0  0
  170  0 84   0   0   0  0  0
  171  2  0   0   0   0  0  0
  172  0 85   0   0   0  0  0
  173  2  0   0   0   0  0  0
  174  0 86   0   0   0  0  0
  175  2  0   0   0   0  0  0
  176  0 87   0   0   0  0  0
  177  2  0   0   0   0  0  0
  178  0 88   0   0   0  0  0
  179  2  0   0   0   0  0  0
  180  0 89   0   0   0  0  0
  181  2  0   0   0   0  0  0
  182  0 90   0   0   0  0  0
  183  2  0   0   0   0  0  0
  184  0 91   0   0   0  0  0
  185  2  0   0   0   0  0  0
  186  0 92   0   0   0  0  0
  187  2  0   0   0   0  0  0
  188  0 93   0   0   0  0  0
  189  2  0   0   0   0  0  0
  190  0 94   0   0   0  0  0
  191  2  0   0   0   0  0  0
  192  0 95   0   0   0  0  0
  193  2  0   0   0   0  0  0
  194  0 96   0   0   0  0  0
  195  2  0   0   0   0  0  0
  196  0 97   0   0   0  0  0
  197  2  0   0   0   0  0  0
  198  0 98   0   0   0  0  0
  199  2  0   0   0   0  0  0
  200  0 99   0   0   0  0  0
  201  2  0   0   0   0  0  0
  202  0 100   0   0   0  0  0
  203  2  0   0   0   0  0  0
  204  0 101   0   0   0  0  0
  205  2  0   0   0   0  0  0
  206  0 102   0   0   0  0  0
  207  0  0   1   1   1  0  0
  208  0  0   0   0   0  1  0
  209  0 103   0   0   0  0  0
  210  2  0   0   0   0  0  0
  211  0 104   0   0   0  0  0
  212  2  0   0   0   0  0  0
  213  0 105   0   0   0  0  0
  214  2  0   0   0   0  0  0
  215  0 106   0   0   0  0  0
  216  2  0   0   0   0  0  0
  217  0 107   0   0   0  0  0
  218  2  0   0   0   0  0  0
  219  0 108   0   0   0  0  0
  220  2  0   0   0   0  0  0
  221  0 109   0   0   0  0  0
  222  2  0   0   0   0  0  0
  223  0 110   0   0   0  0  0
  224  2  0   0   0   0  0  0
  225  0 111   0   0   0  0  0
  226  2  0   0   0   0  0  0
  227  0 112   0   0   0  0  0
  228  2  0   0   0   0  0  0
  229  0 113   0   0   0  0  0
  230  2  0   0   0   0  0  0
  231  0 114   0   0   0  0  0
  232  2  0   0   0   0  0  0
  233  0 115   0   0   0  0  0
  234  2  0   0   0   0  0  0
  235  0 116   0   0   0  0  0
  236  2  0   0   0   0  0  0
  237  0 117   0   0   0  0  0
  238  2  0   0   0   0  0  0
  239  0 118   0   0   0  0  0
  240  2  0   0   0   0  0  0
  241  0 119   0   0   0  0  0
  242  2  0   0   0   0  0  0
  243  0 120   0   0   0  0  0
  244  2  0   0   0   0  0  0
  245  0 121   0   0   0  0  0
  246  2  0   0   0   0  0  0
  247  0 122   0   0   0  0  0
  248  2  0   0   0   0  0  0
  249  0 123   0   0   0  0  0
  250  2  0   0   0   0  0  0
  251  0 124   0   0   0  0  0
  252  2  0   0   0   0  0  0
  253  0 125   0   0   0  0  0
  254  2  0   0   0   0  0  0
  255  0 126   0   0   0  0  0
  256  2  0   0   0   0  0  0
  257  0 127   0   0   0  0  0
  258  2  0   0   0   0  0  0
  259  0 128   0   0   0  0  0
  260  2  0   0   0   0  0  0
  261  0 129   0   0   0  0  0
  262  2  0   0   0   0  0  0
  263  0 130   0   0   0  0  0
  264  2  0   0   0   0  0  0
  265  0 131   0   0   0  0  0
  266  2  0   0   0   0  0  0
  267  0 132   0   0   0  0  0
  268  2  0   0   0   0  0  0
  269  0 133   0   0   0  0  0
  270  2  0   0   0   0  0  0
  271  0 134   0   0   0  0  0
  272  2  0   0   0   0  0  0
  273  0 135   0   0   0  0  0
  274  2  0   0   0   0  0  0
  275  0 136   0   0   0  0  0
  276  0  0   1   1   1  0  0
  277  0  0   0   0   0  1  0
  278  0 137   0   0   0  0  0
  279  2  0   0   0   0  0  0
  280  0 138   0   0   0  0  0
  281  2  0   0   0   0  0  0
  282  0 139   0   0   0  0  0
  283  2  0   0   0   0  0  0
  284  0 140   0   0   0  0  0
  285  2  0   0   0   0  0  0
  286  0 141   0   0   0  0  0
  287  2  0   0   0   0  0  0
  288  0 142   0   0   0  0  0
  289  2  0   0   0   0  0  0
  290  0 143   0   0   0  0  0
  291  2  0   0   0   0  0  0
  292  0 144   0   0   0  0  0
  293  2  0   0   0   0  0  0
  294  0 145   0   0   0  0  0
  295  2  0   0   0   0  0  0
  296  0 146   0   0   0  0  0
  297  2  0   0   0   0  0  0
  298  0 147   0   0   0  0  0
  299  2  0   0   0   0  0  0
  300  0 148   0   0   0  0  0
  301  2  0   0   0   0  0  0
  302  0 149   0   0   0  0  0
  303  2  0   0   0   0  0  0
  304  0 150   0   0   0  0  0
[RF]
1      51.3013 1 2 100 -120065 0
2      51.3013 1 2 100 -120065 5.32604
3      51.3013 1 2 100 -120065 4.36889
4      51.3013 1 2 100 -120065 3.41175
5      51.3013 1 2 100 -120065 2.4546
6      51.3013 1 2 100 -120065 1.49745
7      51.3013 1 2 100 -120065 0.540308
8      51.3013 1 2 100 -120065 5.86635
9      51.3013 1 2 100 -120065 4.9092
10      51.3013 1 2 100 -120065 3.95205
11      51.3013 1 2 100 -120065 2.99491
12      51.3013 1 2 100 -120065 2.03776
13      51.3013 1 2 100 -120065 1.08062
14      51.3013 1 2 100 -120065 0.12347
15      51.3013 1 2 100 -120065 5.44951
16      51.3013 1 2 100 -120065 4.49236
17      51.3013 1 2 100 -120065 3.53522
18      51.3013 1 2 100 -120065 2.57807
19      51.3013 1 2 100 -120065 1.62092
20      51.3013 1 2 100 -120065 0.663778
21      51.3013 1 2 100 -120065 5.98982
22      51.3013 1 2 100 -120065 5.03267
23      51.3013 1 2 100 -120065 4.07552
24      51.3013 1 2 100 -120065 3.11838
25      51.3013 1 2 100 -120065 2.16123
26      51.3013 1 2 100 -120065 1.20409
27      51.3013 1 2 100 -120065 0.24694
28      51.3013 1 2 100 -120065 5.57298
29      51.3013 1 2 100 -120065 4.61583
30      51.3013 1 2 100 -120065 3.65869
31      51.3013 1 2 100 -120065 2.70154
32      51.3013 1 2 100 -120065 1.74439
33      51.3013 1 2 100 -120065 0.787248
34      51.3013 1 2 100 -120065 6.11329
35      51.3013 1 2 100 -20010.9 0
36      51.3013 1 2 100 -20010.9 2.98207
37      51.3013 1 2 100 -20010.9 5.96414
38      51.3013 1 2 100 -20010.9 2.66302
39      51.3013 1 2 100 -20010.9 5.64509
40      51.3013 1 2 100 -20010.9 2.34397
41      51.3013 1 2 100 -20010.9 5.32604
42      51.3013 1 2 100 -20010.9 2.02492
43      51.3013 1 2 100 -20010.9 5.00699
44      51.3013 1 2 100 -20010.9 1.70587
45      51.3013 1 2 100 -20010.9 4.68794
46      51.3013 1 2 100 -20010.9 1.38682
47      51.3013 1 2 100 -20010.9 4.36889
48      51.3013 1 2 100 -20010.9 1.06778
49      51.3013 1 2 100 -20010.9 4.04984
50      51.3013 1 2 100 -20010.9 0.748727
51      51.3013 1 2 100 -20010.9 3.7308
52      51.3013 1 2 100 -20010.9 0.429678
53      51.3013 1 2 100 -20010.9 3.41175
54      51.3013 1 2 100 -20010.9 0.11063
55      51.3013 1 2 100 -20010.9 3.0927
56      51.3013 1 2 100 -20010.9 6.07477
57      51.3013 1 2 100 -20010.9 2.77365
58      51.3013 1 2 100 -20010.9 5.75572
59      51.3013 1 2 100 -20010.9 2.4546
60      51.3013 1 2 100 -20010.9 5.43667
61      51.3013 1 2 100 -20010.9 2.13555
62      51.3013 1 2 100 -20010.9 5.11762
63      51.3013 1 2 100 -20010.9 1.8165
64      51.3013 1 2 100 -20010.9 4.79857
65      51.3013 1 2 100 -20010.9 1.49745
66      51.3013 1 2 100 -20010.9 4.47952
67      51.3013 1 2 100 -20010.9 1.17841
68      51.3013 1 2 100 -20010.9 4.16047
69      51.3013 1 2 100 -12006.5 0
70      51.3013 1 2 100 -12006.5 4.30252
71      51.3013 1 2 100 -12006.5 2.32184
72      51.3013 1 2 100 -12006.5 0.341175
73      51.3013 1 2 100 -12006.5 4.64369
74      51.3013 1 2 100 -12006.5 2.66302
75      51.3013 1 2 100 -12006.5 0.682349
76      51.3013 1 2 100 -12006.5 4.98486
77      51.3013 1 2 100 -12006.5 3.00419
78      51.3013 1 2 100 -12006.5 1.02352
79      51.3013 1 2 100 -12006.5 5.32604
80      51.3013 1 2 100 -12006.5 3.34537
81      51.3013 1 2 100 -12006.5 1.3647
82      51.3013 1 2 100 -12006.5 5.66721
83      51.3013 1 2 100 -12006.5 3.68654
84      51.3013 1 2 100 -12006.5 1.70587
85      51.3013 1 2 100 -12006.5 6.00839
86      51.3013 1 2 100 -12006.5 4.02772
87      51.3013 1 2 100 -12006.5 2.04705
88      51.3013 1 2 100 -12006.5 0.0663778
89      51.3013 1 2 100 -12006.5 4.36889
90      51.3013 1 2 100 -12006.5 2.38822
91      51.3013 1 2 100 -12006.5 0.407552
92      51.3013 1 2 100 -12006.5 4.71007
93      51.3013 1 2 100 -12006.5 2.7294
94      51.3013 1 2 100 -12006.5 0.748727
95      51.3013 1 2 100 -12006.5 5.05124
96      51.3013 1 2 100 -12006.5 3.07057
97      51.3013 1 2 100 -12006.5 1.0899
98      51.3013 1 2 100 -12006.5 5.39242
99      51.3013 1 2 100 -12006.5 3.41175
100      51.3013 1 2 100 -12006.5 1.43108
101      51.3013 1 2 100 -12006.5 5.73359
102      51.3013 1 2 100 -12006.5 3.75292
103      51.3013 1 2 100 -8004.36 0
104      51.3013 1 2 100 -8004.36 4.96274
105      51.3013 1 2 100 -8004.36 3.64229
106      51.3013 1 2 100 -8004.36 2.32184
107      51.3013 1 2 100 -8004.36 1.0014
108      51.3013 1 2 100 -8004.36 5.96414
109      51.3013 1 2 100 -8004.36 4.64369
110      51.3013 1 2 100 -8004.36 3.32324
111      51.3013 1 2 100 -8004.36 2.0028
112      51.3013 1 2 100 -8004.36 0.682349
113      51.3013 1 2 100 -8004.36 5.64509
114      51.3013 1 2 100 -8004.36 4.32464
115      51.3013 1 2 100 -8004.36 3.00419
116      51.3013 1 2 100 -8004.36 1.68375
117      51.3013 1 2 100 -8004.36 0.363301
118      51.3013 1 2 100 -8004.36 5.32604
119      51.3013 1 2 100 -8004.36 4.00559
120      51.3013 1 2 100 -8004.36 2.68515
121      51.3013 1 2 100 -8004.36 1.3647
122      51.3013 1 2 100 -8004.36 0.0442519
123      51.3013 1 2 100 -8004.36 5.00699
124      51.3013 1 2 100 -8004.36 3.68654
125      51.3013 1 2 100 -8004.36 2.3661
126      51.3013 1 2 100 -8004.36 1.04565
127      51.3013 1 2 100 -8004.36 6.00839
128      51.3013 1 2 100 -8004.36 4.68794
129      51.3013 1 2 100 -8004.36 3.36749
130      51.3013 1 2 100 -8004.36 2.04705
131      51.3013 1 2 100 -8004.36 0.726601
132      51.3013 1 2 100 -8004.36 5.68934
133      51.3013 1 2 100 -8004.36 4.36889
134      51.3013 1 2 100 -8004.36 3.04845
135      51.3013 1 2 100 -8004.36 1.728
136      51.3013 1 2 100 -8004.36 0.407552
137      51.3013 1 2 100 -4802.62 0
138      51.3013 1 2 100 -4802.62 5.49092
139      51.3013 1 2 100 -4802.62 4.69865
140      51.3013 1 2 100 -4802.62 3.90638
141      51.3013 1 2 100 -4802.62 3.11411
142      51.3013 1 2 100 -4802.62 2.32184
143      51.3013 1 2 100 -4802.62 1.52958
144      51.3013 1 2 100 -4802.62 0.737309
145      51.3013 1 2 100 -4802.62 6.22823
146      51.3013 1 2 100 -4802.62 5.43596
147      51.3013 1 2 100 -4802.62 4.64369
148      51.3013 1 2 100 -4802.62 3.85142
149      51.3013 1 2 100 -4802.62 3.05915
150      51.3013 1 2 100 -4802.62 2.26689
151      51.3013 1 2 100 -4802.62 1.47462
152      51.3013 1 2 100 -4802.62 0.682349
153      51.3013 1 2 100 -4802.62 6.17327
154      51.3013 1 2 100 -4802.62 5.381
155      51.3013 1 2 100 -4802.62 4.58873
156      51.3013 1 2 100 -4802.62 3.79646
157      51.3013 1 2 100 -4802.62 3.00419
158      51.3013 1 2 100 -4802.62 2.21193
159      51.3013 1 2 100 -4802.62 1.41966
160      51.3013 1 2 100 -4802.62 0.62739
161      51.3013 1 2 100 -4802.62 6.11831
162      51.3013 1 2 100 -4802.62 5.32604
163      51.3013 1 2 100 -4802.62 4.53377
164      51.3013 1 2 100 -4802.62 3.7415
165      51.3013 1 2 100 -4802.62 2.94923
166      51.3013 1 2 100 -4802.62 2.15697
167      51.3013 1 2 100 -4802.62 1.3647
168      51.3013 1 2 100 -4802.62 0.572431
169      51.3013 1 2 100 -4802.62 6.06335
170      51.3013 1 2 100 -4802.62 5.27108
171      51.3013 1 2 100 -3201.75 0
172      51.3013 1 2 100 -3201.75 5.75501
173      51.3013 1 2 100 -3201.75 5.22683
174      51.3013 1 2 100 -3201.75 4.69865
175      51.3013 1 2 100 -3201.75 4.17047
176      51.3013 1 2 100 -3201.75 3.64229
177      51.3013 1 2 100 -3201.75 3.11411
178      51.3013 1 2 100 -3201.75 2.58593
179      51.3013 1 2 100 -3201.75 2.05776
180      51.3013 1 2 100 -3201.75 1.52958
181      51.3013 1 2 100 -3201.75 1.0014
182      51.3013 1 2 100 -3201.75 0.473219
183      51.3013 1 2 100 -3201.75 6.22823
184      51.3013 1 2 100 -3201.75 5.70005
185      51.3013 1 2 100 -3201.75 5.17187
186      51.3013 1 2 100 -3201.75 4.64369
187      51.3013 1 2 100 -3201.75 4.11551
188      51.3013 1 2 100 -3201.75 3.58733
189      51.3013 1 2 100 -3201.75 3.05915
190      51.3013 1 2 100 -3201.75 2.53097
191      51.3013 1 2 100 -3201.75 2.0028
192      51.3013 1 2 100 -3201.75 1.47462
193      51.3013 1 2 100 -3201.75 0.946439
194      51.3013 1 2 100 -3201.75 0.41826
195      51.3013 1 2 100 -3201.75 6.17327
196      51.3013 1 2 100 -3201.75 5.64509
197      51.3013 1 2 100 -3201.75 5.11691
198      51.3013 1 2 100 -3201.75 4.58873
199      51.3013 1 2 100 -3201.75 4.06055
200      51.3013 1 2 100 -3201.75 3.53237
201      51.3013 1 2 100 -3201.75 3.00419
202      51.3013 1 2 100 -3201.75 2.47602
203      51.3013 1 2 100 -3201.75 1.94784
204      51.3013 1 2 100 -3201.75 1.41966
205      51.3013 1 2 100 -2401.31 0
206      51.3013 1 2 100 -2401.31 5.88705
207      51.3013 1 2 100 -2401.31 5.49092
208      51.3013 1 2 100 -2401.31 5.09478
209      51.3013 1 2 100 -2401.31 4.69865
210      51.3013 1 2 100 -2401.31 4.30252
211      51.3013 1 2 100 -2401.31 3.90638
212      51.3013 1 2 100 -2401.31 3.51025
213      51.3013 1 2 100 -2401.31 3.11411
214      51.3013 1 2 100 -2401.31 2.71798
215      51.3013 1 2 100 -2401.31 2.32184
216      51.3013 1 2 100 -2401.31 1.92571
217      51.3013 1 2 100 -2401.31 1.52958
218      51.3013 1 2 100 -2401.31 1.13344
219      51.3013 1 2 100 -2401.31 0.737309
220      51.3013 1 2 100 -2401.31 0.341175
221      51.3013 1 2 100 -2401.31 6.22823
222      51.3013 1 2 100 -2401.31 5.83209
223      51.3013 1 2 100 -2401.31 5.43596
224      51.3013 1 2 100 -2401.31 5.03982
225      51.3013 1 2 100 -2401.31 4.64369
226      51.3013 1 2 100 -2401.31 4.24756
227      51.3013 1 2 100 -2401.31 3.85142
228      51.3013 1 2 100 -2401.31 3.45529
229      51.3013 1 2 100 -2401.31 3.05915
230      51.3013 1 2 100 -2401.31 2.66302
231      51.3013 1 2 100 -2401.31 2.26689
232      51.3013 1 2 100 -2401.31 1.87075
233      51.3013 1 2 100 -2401.31 1.47462
234      51.3013 1 2 100 -2401.31 1.07848
235      51.3013 1 2 100 -2401.31 0.682349
236      51.3013 1 2 100 -2401.31 0.286215
237      51.3013 1 2 100 -2401.31 6.17327
238      51.3013 1 2 100 -2401.31 5.77713
239      51.3013 1 2 100 -2241.22 0
240      51.3013 1 2 100 -2241.22 5.91346
241      51.3013 1 2 100 -2241.22 5.54374
242      51.3013 1 2 100 -2241.22 5.17401
243      51.3013 1 2 100 -2241.22 4.80428
244      51.3013 1 2 100 -2241.22 4.43456
245      51.3013 1 2 100 -2241.22 4.06483
246      51.3013 1 2 100 -2241.22 3.69511
247      51.3013 1 2 100 -2241.22 3.32538
248      51.3013 1 2 100 -2241.22 2.95566
249      51.3013 1 2 100 -2241.22 2.58593
250      51.3013 1 2 100 -2241.22 2.21621
251      51.3013 1 2 100 -2241.22 1.84648
252      51.3013 1 2 100 -2241.22 1.47676
253      51.3013 1 2 100 -2241.22 1.10703
254      51.3013 1 2 100 -2241.22 0.737309
255      51.3013 1 2 100 -2241.22 0.367584
256      51.3013 1 2 100 -2241.22 6.28104
257      51.3013 1 2 100 -2241.22 5.91132
258      51.3013 1 2 100 -2241.22 5.54159
259      51.3013 1 2 100 -2241.22 5.17187
260      51.3013 1 2 100 -2241.22 4.80214
261      51.3013 1 2 100 -2241.22 4.43242
262      51.3013 1 2 100 -2241.22 4.06269
263      51.3013 1 2 100 -2241.22 3.69297
264      51.3013 1 2 100 -2241.22 3.32324
265      51.3013 1 2 100 -2241.22 2.95352
266      51.3013 1 2 100 -2241.22 2.58379
267      51.3013 1 2 100 -2241.22 2.21407
268      51.3013 1 2 100 -2241.22 1.84434
269      51.3013 1 2 100 -2241.22 1.47462
270      51.3013 1 2 100 -2241.22 1.10489
271      51.3013 1 2 100 -2241.22 0.735167
272      51.3013 1 2 100 -2241.22 0.365442
273      51.3013 1 2 100 -2121.16 0
274      51.3013 1 2 100 -2121.16 5.93327
275      51.3013 1 2 100 -2121.16 5.58335
276      51.3013 1 2 100 -2121.16 5.23343
277      51.3013 1 2 100 -2121.16 4.88351
278      51.3013 1 2 100 -2121.16 4.53359
279      51.3013 1 2 100 -2121.16 4.18367
280      51.3013 1 2 100 -2121.16 3.83376
281      51.3013 1 2 100 -2121.16 3.48384
282      51.3013 1 2 100 -2121.16 3.13392
283      51.3013 1 2 100 -2121.16 2.784
284      51.3013 1 2 100 -2121.16 2.43408
285      51.3013 1 2 100 -2121.16 2.08416
286      51.3013 1 2 100 -2121.16 1.73425
287      51.3013 1 2 100 -2121.16 1.38433
288      51.3013 1 2 100 -2121.16 1.03441
289      51.3013 1 2 100 -2121.16 0.684491
290      51.3013 1 2 100 -2121.16 0.334572
291      51.3013 1 2 100 -2121.16 6.26784
292      51.3013 1 2 100 -2121.16 5.91792
293      51.3013 1 2 100 -2121.16 5.568
294      51.3013 1 2 100 -2121.16 5.21808
295      51.3013 1 2 100 -2121.16 4.86817
296      51.3013 1 2 100 -2121.16 4.51825
297      51.3013 1 2 100 -2121.16 4.16833
298      51.3013 1 2 100 -2121.16 3.81841
299      51.3013 1 2 100 -2121.16 3.46849
300      51.3013 1 2 100 -2121.16 3.11857
301      51.3013 1 2 100 -2121.16 2.76866
302      51.3013 1 2 100 -2121.16 2.41874
303      51.3013 1 2 100 -2121.16 2.06882
304      51.3013 1 2 100 -2121.16 1.7189
305      51.3013 1 2 100 -2121.16 1.36898
306      51.3013 1 2 100 -2121.16 1.01906
307      51.3013 1 2 100 -2001.09 0
308      51.3013 1 2 100 -2001.09 5.95307
309      51.3013 1 2 100 -2001.09 5.62296
310      51.3013 1 2 100 -2001.09 5.29285
311      51.3013 1 2 100 -2001.09 4.96274
312      51.3013 1 2 100 -2001.09 4.63263
313      51.3013 1 2 100 -2001.09 4.30252
314      51.3013 1 2 100 -2001.09 3.9724
315      51.3013 1 2 100 -2001.09 3.64229
316      51.3013 1 2 100 -2001.09 3.31218
317      51.3013 1 2 100 -2001.09 2.98207
318      51.3013 1 2 100 -2001.09 2.65196
319      51.3013 1 2 100 -2001.09 2.32184
320      51.3013 1 2 100 -2001.09 1.99173
321      51.3013 1 2 100 -2001.09 1.66162
322      51.3013 1 2 100 -2001.09 1.33151
323      51.3013 1 2 100 -2001.09 1.0014
324      51.3013 1 2 100 -2001.09 0.671286
325      51.3013 1 2 100 -2001.09 0.341175
326      51.3013 1 2 100 -2001.09 0.011063
327      51.3013 1 2 100 -2001.09 5.96414
328      51.3013 1 2 100 -2001.09 5.63402
329      51.3013 1 2 100 -2001.09 5.30391
330      51.3013 1 2 100 -2001.09 4.9738
331      51.3013 1 2 100 -2001.09 4.64369
332      51.3013 1 2 100 -2001.09 4.31358
333      51.3013 1 2 100 -2001.09 3.98347
334      51.3013 1 2 100 -2001.09 3.65335
335      51.3013 1 2 100 -2001.09 3.32324
336      51.3013 1 2 100 -2001.09 2.99313
337      51.3013 1 2 100 -2001.09 2.66302
338      51.3013 1 2 100 -2001.09 2.33291
339      51.3013 1 2 100 -2001.09 2.0028
340      51.3013 1 2 100 -2001.09 1.67268
341      51.3013 1 2 100 -1881.03 0
342      51.3013 1 2 100 -1881.03 5.97288
343      51.3013 1 2 100 -1881.03 5.66258
344      51.3013 1 2 100 -1881.03 5.35227
345      51.3013 1 2 100 -1881.03 5.04197
346      51.3013 1 2 100 -1881.03 4.73166
347      51.3013 1 2 100 -1881.03 4.42136
348      51.3013 1 2 100 -1881.03 4.11105
349      51.3013 1 2 100 -1881.03 3.80075
350      51.3013 1 2 100 -1881.03 3.49044
351      51.3013 1 2 100 -1881.03 3.18014
352      51.3013 1 2 100 -1881.03 2.86983
353      51.3013 1 2 100 -1881.03 2.55953
354      51.3013 1 2 100 -1881.03 2.24922
355      51.3013 1 2 100 -1881.03 1.93892
356      51.3013 1 2 100 -1881.03 1.62861
357      51.3013 1 2 100 -1881.03 1.31831
358      51.3013 1 2 100 -1881.03 1.008
359      51.3013 1 2 100 -1881.03 0.697695
360      51.3013 1 2 100 -1881.03 0.38739
361      51.3013 1 2 100 -1881.03 0.0770853
362      51.3013 1 2 100 -1881.03 6.04997
363      51.3013 1 2 100 -1881.03 5.73966
364      51.3013 1 2 100 -1881.03 5.42936
365      51.3013 1 2 100 -1881.03 5.11905
366      51.3013 1 2 100 -1881.03 4.80875
367      51.3013 1 2 100 -1881.03 4.49844
368      51.3013 1 2 100 -1881.03 4.18814
369      51.3013 1 2 100 -1881.03 3.87783
370      51.3013 1 2 100 -1881.03 3.56753
371      51.3013 1 2 100 -1881.03 3.25722
372      51.3013 1 2 100 -1881.03 2.94692
373      51.3013 1 2 100 -1881.03 2.63661
374      51.3013 1 2 100 -1881.03 2.32631
375      51.3013 1 2 100 -1760.96 0
376      51.3013 1 2 100 -1760.96 5.99269
377      51.3013 1 2 100 -1760.96 5.70219
378      51.3013 1 2 100 -1760.96 5.41169
379      51.3013 1 2 100 -1760.96 5.12119
380      51.3013 1 2 100 -1760.96 4.83069
381      51.3013 1 2 100 -1760.96 4.5402
382      51.3013 1 2 100 -1760.96 4.2497
383      51.3013 1 2 100 -1760.96 3.9592
384      51.3013 1 2 100 -1760.96 3.6687
385      51.3013 1 2 100 -1760.96 3.3782
386      51.3013 1 2 100 -1760.96 3.0877
387      51.3013 1 2 100 -1760.96 2.79721
388      51.3013 1 2 100 -1760.96 2.50671
389      51.3013 1 2 100 -1760.96 2.21621
390      51.3013 1 2 100 -1760.96 1.92571
391      51.3013 1 2 100 -1760.96 1.63521
392      51.3013 1 2 100 -1760.96 1.34471
393      51.3013 1 2 100 -1760.96 1.05422
394      51.3013 1 2 100 -1760.96 0.763718
395      51.3013 1 2 100 -1760.96 0.473219
396      51.3013 1 2 100 -1760.96 0.182721
397      51.3013 1 2 100 -1760.96 6.17541
398      51.3013 1 2 100 -1760.96 5.88491
399      51.3013 1 2 100 -1760.96 5.59441
400      51.3013 1 2 100 -1760.96 5.30391
401      51.3013 1 2 100 -1760.96 5.01341
402      51.3013 1 2 100 -1760.96 4.72292
403      51.3013 1 2 100 -1760.96 4.43242
404      51.3013 1 2 100 -1760.96 4.14192
405      51.3013 1 2 100 -1760.96 3.85142
406      51.3013 1 2 100 -1760.96 3.56092
407      51.3013 1 2 100 -1760.96 3.27043
408      51.3013 1 2 100 -1760.96 2.97993
409      51.3013 1 2 100 -1640.89 0
410      51.3013 1 2 100 -1640.89 6.01249
411      51.3013 1 2 100 -1640.89 5.7418
412      51.3013 1 2 100 -1640.89 5.47111
413      51.3013 1 2 100 -1640.89 5.20042
414      51.3013 1 2 100 -1640.89 4.92973
415      51.3013 1 2 100 -1640.89 4.65904
416      51.3013 1 2 100 -1640.89 4.38834
417      51.3013 1 2 100 -1640.89 4.11765
418      51.3013 1 2 100 -1640.89 3.84696
419      51.3013 1 2 100 -1640.89 3.57627
420      51.3013 1 2 100 -1640.89 3.30558
421      51.3013 1 2 100 -1640.89 3.03489
422      51.3013 1 2 100 -1640.89 2.76419
423      51.3013 1 2 100 -1640.89 2.4935
424      51.3013 1 2 100 -1640.89 2.22281
425      51.3013 1 2 100 -1640.89 1.95212
426      51.3013 1 2 100 -1640.89 1.68143
427      51.3013 1 2 100 -1640.89 1.41074
428      51.3013 1 2 100 -1640.89 1.14004
429      51.3013 1 2 100 -1640.89 0.869353
430      51.3013 1 2 100 -1640.89 0.598662
431      51.3013 1 2 100 -1640.89 0.32797
432      51.3013 1 2 100 -1640.89 0.0572786
433      51.3013 1 2 100 -1640.89 6.06977
434      51.3013 1 2 100 -1640.89 5.79908
435      51.3013 1 2 100 -1640.89 5.52839
436      51.3013 1 2 100 -1640.89 5.2577
437      51.3013 1 2 100 -1640.89 4.98701
438      51.3013 1 2 100 -1640.89 4.71631
439      51.3013 1 2 100 -1640.89 4.44562
440      51.3013 1 2 100 -1640.89 4.17493
441      51.3013 1 2 100 -1640.89 3.90424
442      51.3013 1 2 100 -1640.89 3.63355
443      51.3013 1 2 100 -1520.83 0
444      51.3013 1 2 100 -1520.83 6.0323
445      51.3013 1 2 100 -1520.83 5.78142
446      51.3013 1 2 100 -1520.83 5.53053
447      51.3013 1 2 100 -1520.83 5.27965
448      51.3013 1 2 100 -1520.83 5.02876
449      51.3013 1 2 100 -1520.83 4.77788
450      51.3013 1 2 100 -1520.83 4.52699
451      51.3013 1 2 100 -1520.83 4.27611
452      51.3013 1 2 100 -1520.83 4.02522
453      51.3013 1 2 100 -1520.83 3.77434
454      51.3013 1 2 100 -1520.83 3.52345
455      51.3013 1 2 100 -1520.83 3.27257
456      51.3013 1 2 100 -1520.83 3.02168
457      51.3013 1 2 100 -1520.83 2.7708
458      51.3013 1 2 100 -1520.83 2.51991
459      51.3013 1 2 100 -1520.83 2.26903
460      51.3013 1 2 100 -1520.83 2.01814
461      51.3013 1 2 100 -1520.83 1.76726
462      51.3013 1 2 100 -1520.83 1.51637
463      51.3013 1 2 100 -1520.83 1.26549
464      51.3013 1 2 100 -1520.83 1.0146
465      51.3013 1 2 100 -1520.83 0.763718
466      51.3013 1 2 100 -1520.83 0.512833
467      51.3013 1 2 100 -1520.83 0.261948
468      51.3013 1 2 100 -1520.83 0.011063
469      51.3013 1 2 100 -1520.83 6.04336
470      51.3013 1 2 100 -1520.83 5.79248
471      51.3013 1 2 100 -1520.83 5.54159
472      51.3013 1 2 100 -1520.83 5.29071
473      51.3013 1 2 100 -1520.83 5.03982
474      51.3013 1 2 100 -1520.83 4.78894
475      51.3013 1 2 100 -1520.83 4.53805
476      51.3013 1 2 100 -1520.83 4.28717
477      51.3013 1 2 100 -1400.76 0
478      51.3013 1 2 100 -1400.76 6.05211
479      51.3013 1 2 100 -1400.76 5.82103
480      51.3013 1 2 100 -1400.76 5.58995
481      51.3013 1 2 100 -1400.76 5.35887
