# Pulseq sequence file
# Created by PyPulseq

# Created for Pulseq-CEST
# https://pulseq-cest.github.io/
# Created by: Patrick Schuenke
# Created at: 27-Mar-2023 10:57:45

[VERSION]
major 1
minor 3
revision 1post1

[DEFINITIONS]
B0 9.40000094 
B1pa 0.6 0.9 1.1 1.4 
B1rms 0.520442044 0.780663066 0.954143748 1.21436477 
DCsat 0.5 
FREQ 400.2182 
M0_offset -300 
Trec 3.5 
Trec_M0 12 
Tsat 3.35 
n_pulses 34 
num_meas 74 
offsets_ppm -300 -50 -30 -20 -12 -8 -6 -5.6 -5.3 -5 -4.7 -4.4 -4.1 -3.8 -3.5 -3.2 -2.9 -2.6 -2.3 -2.1 -2 -1.7 -1.4 -1.15 -1 -0.85 -0.75 -0.5 -0.2 0 0.2 0.5 0.6 0.7 0.8 1 1.15 1.3 1.45 1.6 1.75 1.9 2 2.1 2.25 2.4 2.55 2.7 2.85 3 3.15 3.3 3.4 3.5 3.6 3.7 3.85 4 4.15 4.3 4.45 4.6 4.75 4.9 5 5.15 5.3 5.45 6.25 8 12 20 30 50 
seq_id_string MultiPool_9p4T_001_multiB1sat_34Gauss_DC50_3p4s_brain_python 
spoiling 1 
td 0.05 
tp 0.05 

# Format of blocks:
#  #  D RF  GX  GY  GZ ADC EXT
[BLOCKS]
    1  1  0   0   0   0  0  0
    2  0  1   0   0   0  0  0
    3  2  0   0   0   0  0  0
    4  0  2   0   0   0  0  0
    5  2  0   0   0   0  0  0
    6  0  3   0   0   0  0  0
    7  2  0   0   0   0  0  0
    8  0  4   0   0   0  0  0
    9  2  0   0   0   0  0  0
   10  0  5   0   0   0  0  0
   11  2  0   0   0   0  0  0
   12  0  6   0   0   0  0  0
   13  2  0   0   0   0  0  0
   14  0  7   0   0   0  0  0
   15  2  0   0   0   0  0  0
   16  0  8   0   0   0  0  0
   17  2  0   0   0   0  0  0
   18  0  9   0   0   0  0  0
   19  2  0   0   0   0  0  0
   20  0 10   0   0   0  0  0
   21  2  0   0   0   0  0  0
   22  0 11   0   0   0  0  0
   23  2  0   0   0   0  0  0
   24  0 12   0   0   0  0  0
   25  2  0   0   0   0  0  0
   26  0 13   0   0   0  0  0
   27  2  0   0   0   0  0  0
   28  0 14   0   0   0  0  0
   29  2  0   0   0   0  0  0
   30  0 15   0   0   0  0  0
   31  2  0   0   0   0  0  0
   32  0 16   0   0   0  0  0
   33  2  0   0   0   0  0  0
   34  0 17   0   0   0  0  0
   35  2  0   0   0   0  0  0
   36  0 18   0   0   0  0  0
   37  2  0   0   0   0  0  0
   38  0 19   0   0   0  0  0
   39  2  0   0   0   0  0  0
   40  0 20   0   0   0  0  0
   41  2  0   0   0   0  0  0
   42  0 21   0   0   0  0  0
   43  2  0   0   0   0  0  0
   44  0 22   0   0   0  0  0
   45  2  0   0   0   0  0  0
   46  0 23   0   0   0  0  0
   47  2  0   0   0   0  0  0
   48  0 24   0   0   0  0  0
   49  2  0   0   0   0  0  0
   50  0 25   0   0   0  0  0
   51  2  0   0   0   0  0  0
   52  0 26   0   0   0  0  0
   53  2  0   0   0   0  0  0
   54  0 27   0   0   0  0  0
   55  2  0   0   0   0  0  0
   56  0 28   0   0   0  0  0
   57  2  0   0   0   0  0  0
   58  0 29   0   0   0  0  0
   59  2  0   0   0   0  0  0
   60  0 30   0   0   0  0  0
   61  2  0   0   0   0  0  0
   62  0 31   0   0   0  0  0
   63  2  0   0   0   0  0  0
   64  0 32   0   0   0  0  0
   65  2  0   0   0   0  0  0
   66  0 33   0   0   0  0  0
   67  2  0   0   0   0  0  0
   68  0 34   0   0   0  0  0
   69  0  0   1   1   1  0  0
   70  0  0   0   0   0  1  0
   71  3  0   0   0   0  0  0
   72  0 35   0   0   0  0  0
   73  2  0   0   0   0  0  0
   74  0 36   0   0   0  0  0
   75  2  0   0   0   0  0  0
   76  0 37   0   0   0  0  0
   77  2  0   0   0   0  0  0
   78  0 38   0   0   0  0  0
   79  2  0   0   0   0  0  0
   80  0 39   0   0   0  0  0
   81  2  0   0   0   0  0  0
   82  0 40   0   0   0  0  0
   83  2  0   0   0   0  0  0
   84  0 41   0   0   0  0  0
   85  2  0   0   0   0  0  0
   86  0 42   0   0   0  0  0
   87  2  0   0   0   0  0  0
   88  0 43   0   0   0  0  0
   89  2  0   0   0   0  0  0
   90  0 44   0   0   0  0  0
   91  2  0   0   0   0  0  0
   92  0 45   0   0   0  0  0
   93  2  0   0   0   0  0  0
   94  0 46   0   0   0  0  0
   95  2  0   0   0   0  0  0
   96  0 47   0   0   0  0  0
   97  2  0   0   0   0  0  0
   98  0 48   0   0   0  0  0
   99  2  0   0   0   0  0  0
  100  0 49   0   0   0  0  0
  101  2  0   0   0   0  0  0
  102  0 50   0   0   0  0  0
  103  2  0   0   0   0  0  0
  104  0 51   0   0   0  0  0
  105  2  0   0   0   0  0  0
  106  0 52   0   0   0  0  0
  107  2  0   0   0   0  0  0
  108  0 53   0   0   0  0  0
  109  2  0   0   0   0  0  0
  110  0 54   0   0   0  0  0
  111  2  0   0   0   0  0  0
  112  0 55   0   0   0  0  0
  113  2  0   0   0   0  0  0
  114  0 56   0   0   0  0  0
  115  2  0   0   0   0  0  0
  116  0 57   0   0   0  0  0
  117  2  0   0   0   0  0  0
  118  0 58   0   0   0  0  0
  119  2  0   0   0   0  0  0
  120  0 59   0   0   0  0  0
  121  2  0   0   0   0  0  0
  122  0 60   0   0   0  0  0
  123  2  0   0   0   0  0  0
  124  0 61   0   0   0  0  0
  125  2  0   0   0   0  0  0
  126  0 62   0   0   0  0  0
  127  2  0   0   0   0  0  0
  128  0 63   0   0   0  0  0
  129  2  0   0   0   0  0  0
  130  0 64   0   0   0  0  0
  131  2  0   0   0   0  0  0
  132  0 65   0   0   0  0  0
  133  2  0   0   0   0  0  0
  134  0 66   0   0   0  0  0
  135  2  0   0   0   0  0  0
  136  0 67   0   0   0  0  0
  137  2  0   0   0   0  0  0
  138  0 68   0   0   0  0  0
  139  0  0   1   1   1  0  0
  140  0  0   0   0   0  1  0
  141  3  0   0   0   0  0  0
  142  0 69   0   0   0  0  0
  143  2  0   0   0   0  0  0
  144  0 70   0   0   0  0  0
  145  2  0   0   0   0  0  0
  146  0 71   0   0   0  0  0
  147  2  0   0   0   0  0  0
  148  0 72   0   0   0  0  0
  149  2  0   0   0   0  0  0
  150  0 73   0   0   0  0  0
  151  2  0   0   0   0  0  0
  152  0 74   0   0   0  0  0
  153  2  0   0   0   0  0  0
  154  0 75   0   0   0  0  0
  155  2  0   0   0   0  0  0
  156  0 76   0   0   0  0  0
  157  2  0   0   0   0  0  0
  158  0 77   0   0   0  0  0
  159  2  0   0   0   0  0  0
  160  0 78   0   0   0  0  0
  161  2  0   0   0   0  0  0
  162  0 79   0   0   0  0  0
  163  2  0   0   0   0  0  0
  164  0 80   0   0   0  0  0
  165  2  0   0   0   0  0  0
  166  0 81   0   0   0  0  0
  167  2  0   0   0   0  0  0
  168  0 82   0   0   0  0  0
  169  2  0   0   0   0  0  0
  170  0 83   0   0   0  0  0
  171  2  0   0   0   0  0  0
  172  0 84   0   0   0  0  0
  173  2  0   0   0   0  0  0
  174  0 85   0   0   0  0  0
  175  2  0   0   0   0  0  0
  176  0 86   0   0   0  0  0
  177  2  0   0   0   0  0  0
  178  0 87   0   0   0  0  0
  179  2  0   0   0   0  0  0
  180  0 88   0   0   0  0  0
  181  2  0   0   0   0  0  0
  182  0 89   0   0   0  0  0
  183  2  0   0   0   0  0  0
  184  0 90   0   0   0  0  0
  185  2  0   0   0   0  0  0
  186  0 91   0   0   0  0  0
  187  2  0   0   0   0  0  0
  188  0 92   0   0   0  0  0
  189  2  0   0   0   0  0  0
  190  0 93   0   0   0  0  0
  191  2  0   0   0   0  0  0
  192  0 94   0   0   0  0  0
  193  2  0   0   0   0  0  0
  194  0 95   0   0   0  0  0
  195  2  0   0   0   0  0  0
  196  0 96   0   0   0  0  0
  197  2  0   0   0   0  0  0
  198  0 97   0   0   0  0  0
  199  2  0   0   0   0  0  0
  200  0 98   0   0   0  0  0
  201  2  0   0   0   0  0  0
  202  0 99   0   0   0  0  0
  203  2  0   0   0   0  0  0
  204  0 100   0   0   0  0  0
  205  2  0   0   0   0  0  0
  206  0 101   0   0   0  0  0
  207  2  0   0   0   0  0  0
  208  0 102   0   0   0  0  0
  209  0  0   1   1   1  0  0
  210  0  0   0   0   0  1  0
  211  3  0   0   0   0  0  0
  212  0 103   0   0   0  0  0
  213  2  0   0   0   0  0  0
  214  0 104   0   0   0  0  0
  215  2  0   0   0   0  0  0
  216  0 105   0   0   0  0  0
  217  2  0   0   0   0  0  0
  218  0 106   0   0   0  0  0
  219  2  0   0   0   0  0  0
  220  0 107   0   0   0  0  0
  221  2  0   0   0   0  0  0
  222  0 108   0   0   0  0  0
  223  2  0   0   0   0  0  0
  224  0 109   0   0   0  0  0
  225  2  0   0   0   0  0  0
  226  0 110   0   0   0  0  0
  227  2  0   0   0   0  0  0
  228  0 111   0   0   0  0  0
  229  2  0   0   0   0  0  0
  230  0 112   0   0   0  0  0
  231  2  0   0   0   0  0  0
  232  0 113   0   0   0  0  0
  233  2  0   0   0   0  0  0
  234  0 114   0   0   0  0  0
  235  2  0   0   0   0  0  0
  236  0 115   0   0   0  0  0
  237  2  0   0   0   0  0  0
  238  0 116   0   0   0  0  0
  239  2  0   0   0   0  0  0
  240  0 117   0   0   0  0  0
  241  2  0   0   0   0  0  0
  242  0 118   0   0   0  0  0
  243  2  0   0   0   0  0  0
  244  0 119   0   0   0  0  0
  245  2  0   0   0   0  0  0
  246  0 120   0   0   0  0  0
  247  2  0   0   0   0  0  0
  248  0 121   0   0   0  0  0
  249  2  0   0   0   0  0  0
  250  0 122   0   0   0  0  0
  251  2  0   0   0   0  0  0
  252  0 123   0   0   0  0  0
  253  2  0   0   0   0  0  0
  254  0 124   0   0   0  0  0
  255  2  0   0   0   0  0  0
  256  0 125   0   0   0  0  0
  257  2  0   0   0   0  0  0
  258  0 126   0   0   0  0  0
  259  2  0   0   0   0  0  0
  260  0 127   0   0   0  0  0
  261  2  0   0   0   0  0  0
  262  0 128   0   0   0  0  0
  263  2  0   0   0   0  0  0
  264  0 129   0   0   0  0  0
  265  2  0   0   0   0  0  0
  266  0 130   0   0   0  0  0
  267  2  0   0   0   0  0  0
  268  0 131   0   0   0  0  0
  269  2  0   0   0   0  0  0
  270  0 132   0   0   0  0  0
  271  2  0   0   0   0  0  0
  272  0 133   0   0   0  0  0
  273  2  0   0   0   0  0  0
  274  0 134   0   0   0  0  0
  275  2  0   0   0   0  0  0
  276  0 135   0   0   0  0  0
  277  2  0   0   0   0  0  0
  278  0 136   0   0   0  0  0
  279  0  0   1   1   1  0  0
  280  0  0   0   0   0  1  0
  281  3  0   0   0   0  0  0
  282  0 137   0   0   0  0  0
  283  2  0   0   0   0  0  0
  284  0 138   0   0   0  0  0
  285  2  0   0   0   0  0  0
  286  0 139   0   0   0  0  0
  287  2  0   0   0   0  0  0
  288  0 140   0   0   0  0  0
  289  2  0   0   0   0  0  0
  290  0 141   0   0   0  0  0
  291  2  0   0   0   0  0  0
  292  0 142   0   0   0  0  0
  293  2  0   0   0   0  0  0
  294  0 143   0   0   0  0  0
  295  2  0   0   0   0  0  0
  296  0 144   0   0   0  0  0
  297  2  0   0   0   0  0  0
  298  0 145   0   0   0  0  0
  299  2  0   0   0   0  0  0
  300  0 146   0   0   0  0  0
  301  2  0   0   0   0  0  0
[RF]
1      51.3013 1 2 100 -120065 0
2      51.3013 1 2 100 -120065 5.32227
3      51.3013 1 2 100 -120065 4.36135
4      51.3013 1 2 100 -120065 3.40044
5      51.3013 1 2 100 -120065 2.43952
6      51.3013 1 2 100 -120065 1.47861
7      51.3013 1 2 100 -120065 0.517689
8      51.3013 1 2 100 -120065 5.83996
9      51.3013 1 2 100 -120065 4.87904
10      51.3013 1 2 100 -120065 3.91813
11      51.3013 1 2 100 -120065 2.95721
12      51.3013 1 2 100 -120065 1.99629
13      51.3013 1 2 100 -120065 1.03538
14      51.3013 1 2 100 -120065 0.0744619
15      51.3013 1 2 100 -120065 5.39673
16      51.3013 1 2 100 -120065 4.43582
17      51.3013 1 2 100 -120065 3.4749
18      51.3013 1 2 100 -120065 2.51398
19      51.3013 1 2 100 -120065 1.55307
20      51.3013 1 2 100 -120065 0.592151
21      51.3013 1 2 100 -120065 5.91442
22      51.3013 1 2 100 -120065 4.9535
23      51.3013 1 2 100 -120065 3.99259
24      51.3013 1 2 100 -120065 3.03167
25      51.3013 1 2 100 -120065 2.07076
26      51.3013 1 2 100 -120065 1.10984
27      51.3013 1 2 100 -120065 0.148924
28      51.3013 1 2 100 -120065 5.47119
29      51.3013 1 2 100 -120065 4.51028
30      51.3013 1 2 100 -120065 3.54936
31      51.3013 1 2 100 -120065 2.58844
32      51.3013 1 2 100 -120065 1.62753
33      51.3013 1 2 100 -120065 0.666613
34      51.3013 1 2 100 -120065 5.98888
35      51.3013 1 2 100 -20010.9 0
36      51.3013 1 2 100 -20010.9 2.98144
37      51.3013 1 2 100 -20010.9 5.96288
38      51.3013 1 2 100 -20010.9 2.66113
39      51.3013 1 2 100 -20010.9 5.64257
40      51.3013 1 2 100 -20010.9 2.34083
41      51.3013 1 2 100 -20010.9 5.32227
42      51.3013 1 2 100 -20010.9 2.02052
43      51.3013 1 2 100 -20010.9 5.00196
44      51.3013 1 2 100 -20010.9 1.70022
45      51.3013 1 2 100 -20010.9 4.68166
46      51.3013 1 2 100 -20010.9 1.37991
47      51.3013 1 2 100 -20010.9 4.36135
48      51.3013 1 2 100 -20010.9 1.05961
49      51.3013 1 2 100 -20010.9 4.04105
50      51.3013 1 2 100 -20010.9 0.739303
51      51.3013 1 2 100 -20010.9 3.72074
52      51.3013 1 2 100 -20010.9 0.418997
53      51.3013 1 2 100 -20010.9 3.40044
54      51.3013 1 2 100 -20010.9 0.0986918
55      51.3013 1 2 100 -20010.9 3.08013
56      51.3013 1 2 100 -20010.9 6.06157
57      51.3013 1 2 100 -20010.9 2.75983
58      51.3013 1 2 100 -20010.9 5.74127
59      51.3013 1 2 100 -20010.9 2.43952
60      51.3013 1 2 100 -20010.9 5.42096
61      51.3013 1 2 100 -20010.9 2.11922
62      51.3013 1 2 100 -20010.9 5.10066
63      51.3013 1 2 100 -20010.9 1.79891
64      51.3013 1 2 100 -20010.9 4.78035
65      51.3013 1 2 100 -20010.9 1.47861
66      51.3013 1 2 100 -20010.9 4.46005
67      51.3013 1 2 100 -20010.9 1.1583
68      51.3013 1 2 100 -20010.9 4.13974
69      51.3013 1 2 100 -12006.5 0
70      51.3013 1 2 100 -12006.5 4.30214
71      51.3013 1 2 100 -12006.5 2.32109
72      51.3013 1 2 100 -12006.5 0.340044
73      51.3013 1 2 100 -12006.5 4.64218
74      51.3013 1 2 100 -12006.5 2.66113
75      51.3013 1 2 100 -12006.5 0.680087
76      51.3013 1 2 100 -12006.5 4.98223
77      51.3013 1 2 100 -12006.5 3.00118
78      51.3013 1 2 100 -12006.5 1.02013
79      51.3013 1 2 100 -12006.5 5.32227
80      51.3013 1 2 100 -12006.5 3.34122
81      51.3013 1 2 100 -12006.5 1.36017
82      51.3013 1 2 100 -12006.5 5.66231
83      51.3013 1 2 100 -12006.5 3.68127
84      51.3013 1 2 100 -12006.5 1.70022
85      51.3013 1 2 100 -12006.5 6.00236
86      51.3013 1 2 100 -12006.5 4.02131
87      51.3013 1 2 100 -12006.5 2.04026
88      51.3013 1 2 100 -12006.5 0.0592151
89      51.3013 1 2 100 -12006.5 4.36135
90      51.3013 1 2 100 -12006.5 2.38031
91      51.3013 1 2 100 -12006.5 0.399259
92      51.3013 1 2 100 -12006.5 4.7014
93      51.3013 1 2 100 -12006.5 2.72035
94      51.3013 1 2 100 -12006.5 0.739303
95      51.3013 1 2 100 -12006.5 5.04144
96      51.3013 1 2 100 -12006.5 3.06039
97      51.3013 1 2 100 -12006.5 1.07935
98      51.3013 1 2 100 -12006.5 5.38148
99      51.3013 1 2 100 -12006.5 3.40044
100      51.3013 1 2 100 -12006.5 1.41939
101      51.3013 1 2 100 -12006.5 5.72153
102      51.3013 1 2 100 -12006.5 3.74048
103      51.3013 1 2 100 -8004.36 0
104      51.3013 1 2 100 -8004.36 4.96249
105      51.3013 1 2 100 -8004.36 3.64179
106      51.3013 1 2 100 -8004.36 2.32109
107      51.3013 1 2 100 -8004.36 1.00039
108      51.3013 1 2 100 -8004.36 5.96288
109      51.3013 1 2 100 -8004.36 4.64218
110      51.3013 1 2 100 -8004.36 3.32148
111      51.3013 1 2 100 -8004.36 2.00079
112      51.3013 1 2 100 -8004.36 0.680087
113      51.3013 1 2 100 -8004.36 5.64257
114      51.3013 1 2 100 -8004.36 4.32188
115      51.3013 1 2 100 -8004.36 3.00118
116      51.3013 1 2 100 -8004.36 1.68048
117      51.3013 1 2 100 -8004.36 0.359782
118      51.3013 1 2 100 -8004.36 5.32227
119      51.3013 1 2 100 -8004.36 4.00157
120      51.3013 1 2 100 -8004.36 2.68087
121      51.3013 1 2 100 -8004.36 1.36017
122      51.3013 1 2 100 -8004.36 0.0394767
123      51.3013 1 2 100 -8004.36 5.00196
124      51.3013 1 2 100 -8004.36 3.68127
125      51.3013 1 2 100 -8004.36 2.36057
126      51.3013 1 2 100 -8004.36 1.03987
127      51.3013 1 2 100 -8004.36 6.00236
128      51.3013 1 2 100 -8004.36 4.68166
129      51.3013 1 2 100 -8004.36 3.36096
130      51.3013 1 2 100 -8004.36 2.04026
131      51.3013 1 2 100 -8004.36 0.719564
132      51.3013 1 2 100 -8004.36 5.68205
133      51.3013 1 2 100 -8004.36 4.36135
134      51.3013 1 2 100 -8004.36 3.04066
135      51.3013 1 2 100 -8004.36 1.71996
136      51.3013 1 2 100 -8004.36 0.399259
137      51.3013 1 2 100 -4802.62 0
138      51.3013 1 2 100 -4802.62 5.49077
139      51.3013 1 2 100 -4802.62 4.69835
140      51.3013 1 2 100 -4802.62 3.90593
141      51.3013 1 2 100 -4802.62 3.11351
142      51.3013 1 2 100 -4802.62 2.32109
143      51.3013 1 2 100 -4802.62 1.52867
144      51.3013 1 2 100 -4802.62 0.736253
145      51.3013 1 2 100 -4802.62 6.22702
146      51.3013 1 2 100 -4802.62 5.4346
147      51.3013 1 2 100 -4802.62 4.64218
148      51.3013 1 2 100 -4802.62 3.84976
149      51.3013 1 2 100 -4802.62 3.05734
150      51.3013 1 2 100 -4802.62 2.26493
151      51.3013 1 2 100 -4802.62 1.47251
152      51.3013 1 2 100 -4802.62 0.680087
153      51.3013 1 2 100 -4802.62 6.17085
154      51.3013 1 2 100 -4802.62 5.37843
155      51.3013 1 2 100 -4802.62 4.58602
156      51.3013 1 2 100 -4802.62 3.7936
157      51.3013 1 2 100 -4802.62 3.00118
158      51.3013 1 2 100 -4802.62 2.20876
159      51.3013 1 2 100 -4802.62 1.41634
160      51.3013 1 2 100 -4802.62 0.623922
161      51.3013 1 2 100 -4802.62 6.11469
162      51.3013 1 2 100 -4802.62 5.32227
163      51.3013 1 2 100 -4802.62 4.52985
164      51.3013 1 2 100 -4802.62 3.73743
165      51.3013 1 2 100 -4802.62 2.94501
166      51.3013 1 2 100 -4802.62 2.15259
167      51.3013 1 2 100 -4802.62 1.36017
168      51.3013 1 2 100 -4802.62 0.567756
169      51.3013 1 2 100 -4802.62 6.05852
170      51.3013 1 2 100 -4802.62 5.2661
171      51.3013 1 2 100 -3201.75 0
172      51.3013 1 2 100 -3201.75 5.75491
173      51.3013 1 2 100 -3201.75 5.22663
174      51.3013 1 2 100 -3201.75 4.69835
175      51.3013 1 2 100 -3201.75 4.17007
176      51.3013 1 2 100 -3201.75 3.64179
177      51.3013 1 2 100 -3201.75 3.11351
178      51.3013 1 2 100 -3201.75 2.58523
179      51.3013 1 2 100 -3201.75 2.05695
180      51.3013 1 2 100 -3201.75 1.52867
181      51.3013 1 2 100 -3201.75 1.00039
182      51.3013 1 2 100 -3201.75 0.472114
183      51.3013 1 2 100 -3201.75 6.22702
184      51.3013 1 2 100 -3201.75 5.69874
185      51.3013 1 2 100 -3201.75 5.17046
186      51.3013 1 2 100 -3201.75 4.64218
187      51.3013 1 2 100 -3201.75 4.1139
188      51.3013 1 2 100 -3201.75 3.58562
189      51.3013 1 2 100 -3201.75 3.05734
190      51.3013 1 2 100 -3201.75 2.52906
191      51.3013 1 2 100 -3201.75 2.00079
192      51.3013 1 2 100 -3201.75 1.47251
193      51.3013 1 2 100 -3201.75 0.944227
194      51.3013 1 2 100 -3201.75 0.415948
195      51.3013 1 2 100 -3201.75 6.17085
196      51.3013 1 2 100 -3201.75 5.64257
197      51.3013 1 2 100 -3201.75 5.1143
198      51.3013 1 2 100 -3201.75 4.58602
199      51.3013 1 2 100 -3201.75 4.05774
200      51.3013 1 2 100 -3201.75 3.52946
201      51.3013 1 2 100 -3201.75 3.00118
202      51.3013 1 2 100 -3201.75 2.4729
203      51.3013 1 2 100 -3201.75 1.94462
204      51.3013 1 2 100 -3201.75 1.41634
205      51.3013 1 2 100 -2401.31 0
206      51.3013 1 2 100 -2401.31 5.88698
207      51.3013 1 2 100 -2401.31 5.49077
208      51.3013 1 2 100 -2401.31 5.09456
209      51.3013 1 2 100 -2401.31 4.69835
210      51.3013 1 2 100 -2401.31 4.30214
211      51.3013 1 2 100 -2401.31 3.90593
212      51.3013 1 2 100 -2401.31 3.50972
213      51.3013 1 2 100 -2401.31 3.11351
214      51.3013 1 2 100 -2401.31 2.7173
215      51.3013 1 2 100 -2401.31 2.32109
216      51.3013 1 2 100 -2401.31 1.92488
217      51.3013 1 2 100 -2401.31 1.52867
218      51.3013 1 2 100 -2401.31 1.13246
219      51.3013 1 2 100 -2401.31 0.736253
220      51.3013 1 2 100 -2401.31 0.340044
221      51.3013 1 2 100 -2401.31 6.22702
222      51.3013 1 2 100 -2401.31 5.83081
223      51.3013 1 2 100 -2401.31 5.4346
224      51.3013 1 2 100 -2401.31 5.03839
225      51.3013 1 2 100 -2401.31 4.64218
226      51.3013 1 2 100 -2401.31 4.24597
227      51.3013 1 2 100 -2401.31 3.84976
228      51.3013 1 2 100 -2401.31 3.45355
229      51.3013 1 2 100 -2401.31 3.05734
230      51.3013 1 2 100 -2401.31 2.66113
231      51.3013 1 2 100 -2401.31 2.26493
232      51.3013 1 2 100 -2401.31 1.86872
233      51.3013 1 2 100 -2401.31 1.47251
234      51.3013 1 2 100 -2401.31 1.0763
235      51.3013 1 2 100 -2401.31 0.680087
236      51.3013 1 2 100 -2401.31 0.283878
237      51.3013 1 2 100 -2401.31 6.17085
238      51.3013 1 2 100 -2401.31 5.77464
239      51.3013 1 2 100 -2241.22 0
240      51.3013 1 2 100 -2241.22 5.91339
241      51.3013 1 2 100 -2241.22 5.54359
242      51.3013 1 2 100 -2241.22 5.1738
243      51.3013 1 2 100 -2241.22 4.804
244      51.3013 1 2 100 -2241.22 4.43421
245      51.3013 1 2 100 -2241.22 4.06441
246      51.3013 1 2 100 -2241.22 3.69462
247      51.3013 1 2 100 -2241.22 3.32482
248      51.3013 1 2 100 -2241.22 2.95503
249      51.3013 1 2 100 -2241.22 2.58523
250      51.3013 1 2 100 -2241.22 2.21544
251      51.3013 1 2 100 -2241.22 1.84564
252      51.3013 1 2 100 -2241.22 1.47584
253      51.3013 1 2 100 -2241.22 1.10605
254      51.3013 1 2 100 -2241.22 0.736253
255      51.3013 1 2 100 -2241.22 0.366458
256      51.3013 1 2 100 -2241.22 6.27985
257      51.3013 1 2 100 -2241.22 5.91005
258      51.3013 1 2 100 -2241.22 5.54026
259      51.3013 1 2 100 -2241.22 5.17046
260      51.3013 1 2 100 -2241.22 4.80067
261      51.3013 1 2 100 -2241.22 4.43087
262      51.3013 1 2 100 -2241.22 4.06107
263      51.3013 1 2 100 -2241.22 3.69128
264      51.3013 1 2 100 -2241.22 3.32148
265      51.3013 1 2 100 -2241.22 2.95169
266      51.3013 1 2 100 -2241.22 2.58189
267      51.3013 1 2 100 -2241.22 2.2121
268      51.3013 1 2 100 -2241.22 1.8423
269      51.3013 1 2 100 -2241.22 1.47251
270      51.3013 1 2 100 -2241.22 1.10271
271      51.3013 1 2 100 -2241.22 0.732915
272      51.3013 1 2 100 -2241.22 0.36312
273      51.3013 1 2 100 -2121.16 0
274      51.3013 1 2 100 -2121.16 5.9332
275      51.3013 1 2 100 -2121.16 5.58322
276      51.3013 1 2 100 -2121.16 5.23323
277      51.3013 1 2 100 -2121.16 4.88325
278      51.3013 1 2 100 -2121.16 4.53326
279      51.3013 1 2 100 -2121.16 4.18328
280      51.3013 1 2 100 -2121.16 3.83329
281      51.3013 1 2 100 -2121.16 3.48331
282      51.3013 1 2 100 -2121.16 3.13332
283      51.3013 1 2 100 -2121.16 2.78334
284      51.3013 1 2 100 -2121.16 2.43335
285      51.3013 1 2 100 -2121.16 2.08337
286      51.3013 1 2 100 -2121.16 1.73338
287      51.3013 1 2 100 -2121.16 1.3834
288      51.3013 1 2 100 -2121.16 1.03341
289      51.3013 1 2 100 -2121.16 0.683425
290      51.3013 1 2 100 -2121.16 0.33344
291      51.3013 1 2 100 -2121.16 6.26664
292      51.3013 1 2 100 -2121.16 5.91666
293      51.3013 1 2 100 -2121.16 5.56667
294      51.3013 1 2 100 -2121.16 5.21669
295      51.3013 1 2 100 -2121.16 4.8667
296      51.3013 1 2 100 -2121.16 4.51672
297      51.3013 1 2 100 -2121.16 4.16673
298      51.3013 1 2 100 -2121.16 3.81675
299      51.3013 1 2 100 -2121.16 3.46676
300      51.3013 1 2 100 -2121.16 3.11678
301      51.3013 1 2 100 -2121.16 2.76679
302      51.3013 1 2 100 -2121.16 2.41681
303      51.3013 1 2 100 -2121.16 2.06682
304      51.3013 1 2 100 -2121.16 1.71684
305      51.3013 1 2 100 -2121.16 1.36685
306      51.3013 1 2 100 -2121.16 1.01687
307      51.3013 1 2 100 -2001.09 0
308      51.3013 1 2 100 -2001.09 5.95301
309      51.3013 1 2 100 -2001.09 5.62284
310      51.3013 1 2 100 -2001.09 5.29266
311      51.3013 1 2 100 -2001.09 4.96249
312      51.3013 1 2 100 -2001.09 4.63231
313      51.3013 1 2 100 -2001.09 4.30214
314      51.3013 1 2 100 -2001.09 3.97196
315      51.3013 1 2 100 -2001.09 3.64179
316      51.3013 1 2 100 -2001.09 3.31161
317      51.3013 1 2 100 -2001.09 2.98144
318      51.3013 1 2 100 -2001.09 2.65127
319      51.3013 1 2 100 -2001.09 2.32109
320      51.3013 1 2 100 -2001.09 1.99092
321      51.3013 1 2 100 -2001.09 1.66074
322      51.3013 1 2 100 -2001.09 1.33057
323      51.3013 1 2 100 -2001.09 1.00039
324      51.3013 1 2 100 -2001.09 0.670218
325      51.3013 1 2 100 -2001.09 0.340044
326      51.3013 1 2 100 -2001.09 0.00986918
327      51.3013 1 2 100 -2001.09 5.96288
328      51.3013 1 2 100 -2001.09 5.63271
329      51.3013 1 2 100 -2001.09 5.30253
330      51.3013 1 2 100 -2001.09 4.97236
331      51.3013 1 2 100 -2001.09 4.64218
332      51.3013 1 2 100 -2001.09 4.31201
333      51.3013 1 2 100 -2001.09 3.98183
334      51.3013 1 2 100 -2001.09 3.65166
335      51.3013 1 2 100 -2001.09 3.32148
336      51.3013 1 2 100 -2001.09 2.99131
337      51.3013 1 2 100 -2001.09 2.66113
338      51.3013 1 2 100 -2001.09 2.33096
339      51.3013 1 2 100 -2001.09 2.00079
340      51.3013 1 2 100 -2001.09 1.67061
341      51.3013 1 2 100 -1881.03 0
342      51.3013 1 2 100 -1881.03 5.97282
343      51.3013 1 2 100 -1881.03 5.66246
344      51.3013 1 2 100 -1881.03 5.35209
345      51.3013 1 2 100 -1881.03 5.04173
346      51.3013 1 2 100 -1881.03 4.73137
347      51.3013 1 2 100 -1881.03 4.421
348      51.3013 1 2 100 -1881.03 4.11064
349      51.3013 1 2 100 -1881.03 3.80027
350      51.3013 1 2 100 -1881.03 3.48991
351      51.3013 1 2 100 -1881.03 3.17954
352      51.3013 1 2 100 -1881.03 2.86918
353      51.3013 1 2 100 -1881.03 2.55882
354      51.3013 1 2 100 -1881.03 2.24845
355      51.3013 1 2 100 -1881.03 1.93809
356      51.3013 1 2 100 -1881.03 1.62772
357      51.3013 1 2 100 -1881.03 1.31736
358      51.3013 1 2 100 -1881.03 1.007
359      51.3013 1 2 100 -1881.03 0.696632
360      51.3013 1 2 100 -1881.03 0.386268
361      51.3013 1 2 100 -1881.03 0.0759041
362      51.3013 1 2 100 -1881.03 6.04873
363      51.3013 1 2 100 -1881.03 5.73836
364      51.3013 1 2 100 -1881.03 5.428
365      51.3013 1 2 100 -1881.03 5.11763
366      51.3013 1 2 100 -1881.03 4.80727
367      51.3013 1 2 100 -1881.03 4.49691
368      51.3013 1 2 100 -1881.03 4.18654
369      51.3013 1 2 100 -1881.03 3.87618
370      51.3013 1 2 100 -1881.03 3.56581
371      51.3013 1 2 100 -1881.03 3.25545
372      51.3013 1 2 100 -1881.03 2.94508
373      51.3013 1 2 100 -1881.03 2.63472
374      51.3013 1 2 100 -1881.03 2.32436
375      51.3013 1 2 100 -1760.96 0
376      51.3013 1 2 100 -1760.96 5.99263
377      51.3013 1 2 100 -1760.96 5.70208
378      51.3013 1 2 100 -1760.96 5.41152
379      51.3013 1 2 100 -1760.96 5.12097
380      51.3013 1 2 100 -1760.96 4.83042
381      51.3013 1 2 100 -1760.96 4.53986
382      51.3013 1 2 100 -1760.96 4.24931
383      51.3013 1 2 100 -1760.96 3.95876
384      51.3013 1 2 100 -1760.96 3.6682
385      51.3013 1 2 100 -1760.96 3.37765
386      51.3013 1 2 100 -1760.96 3.0871
387      51.3013 1 2 100 -1760.96 2.79654
388      51.3013 1 2 100 -1760.96 2.50599
389      51.3013 1 2 100 -1760.96 2.21544
390      51.3013 1 2 100 -1760.96 1.92488
391      51.3013 1 2 100 -1760.96 1.63433
392      51.3013 1 2 100 -1760.96 1.34377
393      51.3013 1 2 100 -1760.96 1.05322
394      51.3013 1 2 100 -1760.96 0.762667
395      51.3013 1 2 100 -1760.96 0.472114
396      51.3013 1 2 100 -1760.96 0.18156
397      51.3013 1 2 100 -1760.96 6.17419
398      51.3013 1 2 100 -1760.96 5.88364
399      51.3013 1 2 100 -1760.96 5.59308
400      51.3013 1 2 100 -1760.96 5.30253
401      51.3013 1 2 100 -1760.96 5.01198
402      51.3013 1 2 100 -1760.96 4.72142
403      51.3013 1 2 100 -1760.96 4.43087
404      51.3013 1 2 100 -1760.96 4.14032
405      51.3013 1 2 100 -1760.96 3.84976
406      51.3013 1 2 100 -1760.96 3.55921
407      51.3013 1 2 100 -1760.96 3.26866
408      51.3013 1 2 100 -1760.96 2.9781
409      51.3013 1 2 100 -1640.89 0
410      51.3013 1 2 100 -1640.89 6.01244
411      51.3013 1 2 100 -1640.89 5.7417
412      51.3013 1 2 100 -1640.89 5.47096
413      51.3013 1 2 100 -1640.89 5.20021
414      51.3013 1 2 100 -1640.89 4.92947
415      51.3013 1 2 100 -1640.89 4.65873
416      51.3013 1 2 100 -1640.89 4.38798
417      51.3013 1 2 100 -1640.89 4.11724
418      51.3013 1 2 100 -1640.89 3.8465
419      51.3013 1 2 100 -1640.89 3.57575
420      51.3013 1 2 100 -1640.89 3.30501
421      51.3013 1 2 100 -1640.89 3.03427
422      51.3013 1 2 100 -1640.89 2.76352
423      51.3013 1 2 100 -1640.89 2.49278
424      51.3013 1 2 100 -1640.89 2.22204
425      51.3013 1 2 100 -1640.89 1.9513
426      51.3013 1 2 100 -1640.89 1.68055
427      51.3013 1 2 100 -1640.89 1.40981
428      51.3013 1 2 100 -1640.89 1.13907
429      51.3013 1 2 100 -1640.89 0.868323
430      51.3013 1 2 100 -1640.89 0.59758
431      51.3013 1 2 100 -1640.89 0.326837
432      51.3013 1 2 100 -1640.89 0.0560936
433      51.3013 1 2 100 -1640.89 6.06854
434      51.3013 1 2 100 -1640.89 5.79779
435      51.3013 1 2 100 -1640.89 5.52705
436      51.3013 1 2 100 -1640.89 5.25631
437      51.3013 1 2 100 -1640.89 4.98556
438      51.3013 1 2 100 -1640.89 4.71482
439      51.3013 1 2 100 -1640.89 4.44408
440      51.3013 1 2 100 -1640.89 4.17333
441      51.3013 1 2 100 -1640.89 3.90259
442      51.3013 1 2 100 -1640.89 3.63185
443      51.3013 1 2 100 -1520.83 0
444      51.3013 1 2 100 -1520.83 6.03225
445      51.3013 1 2 100 -1520.83 5.78132
446      51.3013 1 2 100 -1520.83 5.53039
447      51.3013 1 2 100 -1520.83 5.27945
448      51.3013 1 2 100 -1520.83 5.02852
449      51.3013 1 2 100 -1520.83 4.77759
450      51.3013 1 2 100 -1520.83 4.52666
451      51.3013 1 2 100 -1520.83 4.27572
452      51.3013 1 2 100 -1520.83 4.02479
453      51.3013 1 2 100 -1520.83 3.77386
454      51.3013 1 2 100 -1520.83 3.52293
455      51.3013 1 2 100 -1520.83 3.27199
456      51.3013 1 2 100 -1520.83 3.02106
457      51.3013 1 2 100 -1520.83 2.77013
458      51.3013 1 2 100 -1520.83 2.5192
459      51.3013 1 2 100 -1520.83 2.26826
460      51.3013 1 2 100 -1520.83 2.01733
461      51.3013 1 2 100 -1520.83 1.7664
462      51.3013 1 2 100 -1520.83 1.51547
463      51.3013 1 2 100 -1520.83 1.26453
464      51.3013 1 2 100 -1520.83 1.0136
465      51.3013 1 2 100 -1520.83 0.762667
466      51.3013 1 2 100 -1520.83 0.511734
467      51.3013 1 2 100 -1520.83 0.260802
468      51.3013 1 2 100 -1520.83 0.00986918
469      51.3013 1 2 100 -1520.83 6.04212
470      51.3013 1 2 100 -1520.83 5.79119
471      51.3013 1 2 100 -1520.83 5.54026
472      51.3013 1 2 100 -1520.83 5.28932
473      51.3013 1 2 100 -1520.83 5.03839
474      51.3013 1 2 100 -1520.83 4.78746
475      51.3013 1 2 100 -1520.83 4.53653
476      51.3013 1 2 100 -1520.83 4.28559
477      51.3013 1 2 100 -1400.76 0
478      51.3013 1 2 100 -1400.76 6.05206
479      51.3013 1 2 100 -1400.76 5.82094
480      51.3013 1 2 100 -1400.76 5.58982
481      51.3013 1 2 100 -1400.76 5.3587
