# Pulseq sequence file
# Created by MATLAB mr toolbox

# Created for Pulseq-CEST
# https://pulseq-cest.github.io/
# Created by: Moritz Zaiss
# Created at: 28-Sep-2021 14:36:55

[VERSION]
major 1
minor 3
revision 1

[DEFINITIONS]
B0 3 
B1rms 1.95179527 
B1pa 2 
DCsat 0.952380952 
M0_offset -1560 
Trec 3.5 
Tsat 1.99 
n_pulses 19 
num_meas 82 
offsets_ppm -1560 -4 -3.9 -3.8 -3.7 -3.6 -3.5 -3.4 -3.3 -3.2 -3.1 -3 -2.9 -2.8 -2.7 -2.6 -2.5 -2.4 -2.3 -2.2 -2.1 -2 -1.9 -1.8 -1.7 -1.6 -1.5 -1.4 -1.3 -1.2 -1.1 -1 -0.9 -0.8 -0.7 -0.6 -0.5 -0.4 -0.3 -0.2 -0.1 0 0.1 0.2 0.3 0.4 0.5 0.6 0.7 0.8 0.9 1 1.1 1.2 1.3 1.4 1.5 1.6 1.7 1.8 1.9 2 2.1 2.2 2.3 2.4 2.5 2.6 2.7 2.8 2.9 3 3.1 3.2 3.3 3.4 3.5 3.6 3.7 3.8 3.9 4 
seq_id_string APTw_3T_004_2uT_19SL_DC95_2s_braintumor 
td 0.005 
tp 0.1 

# Format of blocks:
#  #  D RF  GX  GY  GZ ADC EXT
[BLOCKS]
   1  1  0   0   0   0  0  0
   2  2  0   0   0   0  0  0
   3  0  1   0   0   0  0  0
   4  2  0   0   0   0  0  0
   5  3  0   0   0   0  0  0
   6  2  0   0   0   0  0  0
   7  0  1   0   0   0  0  0
   8  2  0   0   0   0  0  0
   9  3  0   0   0   0  0  0
  10  2  0   0   0   0  0  0
  11  0  1   0   0   0  0  0
  12  2  0   0   0   0  0  0
  13  3  0   0   0   0  0  0
  14  2  0   0   0   0  0  0
  15  0  1   0   0   0  0  0
  16  2  0   0   0   0  0  0
  17  3  0   0   0   0  0  0
  18  2  0   0   0   0  0  0
  19  0  1   0   0   0  0  0
  20  2  0   0   0   0  0  0
  21  3  0   0   0   0  0  0
  22  2  0   0   0   0  0  0
  23  0  1   0   0   0  0  0
  24  2  0   0   0   0  0  0
  25  3  0   0   0   0  0  0
  26  2  0   0   0   0  0  0
  27  0  1   0   0   0  0  0
  28  2  0   0   0   0  0  0
  29  3  0   0   0   0  0  0
  30  2  0   0   0   0  0  0
  31  0  1   0   0   0  0  0
  32  2  0   0   0   0  0  0
  33  3  0   0   0   0  0  0
  34  2  0   0   0   0  0  0
  35  0  1   0   0   0  0  0
  36  2  0   0   0   0  0  0
  37  3  0   0   0   0  0  0
  38  2  0   0   0   0  0  0
  39  0  1   0   0   0  0  0
  40  2  0   0   0   0  0  0
  41  3  0   0   0   0  0  0
  42  2  0   0   0   0  0  0
  43  0  1   0   0   0  0  0
  44  2  0   0   0   0  0  0
  45  3  0   0   0   0  0  0
  46  2  0   0   0   0  0  0
  47  0  1   0   0   0  0  0
  48  2  0   0   0   0  0  0
  49  3  0   0   0   0  0  0
  50  2  0   0   0   0  0  0
  51  0  1   0   0   0  0  0
  52  2  0   0   0   0  0  0
  53  3  0   0   0   0  0  0
  54  2  0   0   0   0  0  0
  55  0  1   0   0   0  0  0
  56  2  0   0   0   0  0  0
  57  3  0   0   0   0  0  0
  58  2  0   0   0   0  0  0
  59  0  1   0   0   0  0  0
  60  2  0   0   0   0  0  0
  61  3  0   0   0   0  0  0
  62  2  0   0   0   0  0  0
  63  0  1   0   0   0  0  0
  64  2  0   0   0   0  0  0
  65  3  0   0   0   0  0  0
  66  2  0   0   0   0  0  0
  67  0  1   0   0   0  0  0
  68  2  0   0   0   0  0  0
  69  3  0   0   0   0  0  0
  70  2  0   0   0   0  0  0
  71  0  1   0   0   0  0  0
  72  2  0   0   0   0  0  0
  73  3  0   0   0   0  0  0
  74  2  0   0   0   0  0  0
  75  0  1   0   0   0  0  0
  76  2  0   0   0   0  0  0
  77  0  0   1   1   1  0  0
  78  0  0   0   0   0  1  0
  79  1  0   0   0   0  0  0
  80  0  2   0   0   0  0  0
  81  4  0   0   0   0  0  0
  82  0  3   0   0   0  0  0
  83  4  0   0   0   0  0  0
  84  0  4   0   0   0  0  0
  85  3  0   0   0   0  0  0
  86  0  2   0   0   0  0  0
  87  4  0   0   0   0  0  0
  88  0  3   0   0   0  0  0
  89  4  0   0   0   0  0  0
  90  0  4   0   0   0  0  0
  91  3  0   0   0   0  0  0
  92  0  2   0   0   0  0  0
  93  4  0   0   0   0  0  0
  94  0  3   0   0   0  0  0
  95  4  0   0   0   0  0  0
  96  0  4   0   0   0  0  0
  97  3  0   0   0   0  0  0
  98  0  2   0   0   0  0  0
  99  4  0   0   0   0  0  0
 100  0  3   0   0   0  0  0
 101  4  0   0   0   0  0  0
 102  0  4   0   0   0  0  0
 103  3  0   0   0   0  0  0
 104  0  2   0   0   0  0  0
 105  4  0   0   0   0  0  0
 106  0  3   0   0   0  0  0
 107  4  0   0   0   0  0  0
 108  0  4   0   0   0  0  0
 109  3  0   0   0   0  0  0
 110  0  2   0   0   0  0  0
 111  4  0   0   0   0  0  0
 112  0  3   0   0   0  0  0
 113  4  0   0   0   0  0  0
 114  0  4   0   0   0  0  0
 115  3  0   0   0   0  0  0
 116  0  2   0   0   0  0  0
 117  4  0   0   0   0  0  0
 118  0  3   0   0   0  0  0
 119  4  0   0   0   0  0  0
 120  0  4   0   0   0  0  0
 121  3  0   0   0   0  0  0
 122  0  2   0   0   0  0  0
 123  4  0   0   0   0  0  0
 124  0  3   0   0   0  0  0
 125  4  0   0   0   0  0  0
 126  0  4   0   0   0  0  0
 127  3  0   0   0   0  0  0
 128  0  2   0   0   0  0  0
 129  4  0   0   0   0  0  0
 130  0  3   0   0   0  0  0
 131  4  0   0   0   0  0  0
 132  0  4   0   0   0  0  0
 133  3  0   0   0   0  0  0
 134  0  2   0   0   0  0  0
 135  4  0   0   0   0  0  0
 136  0  3   0   0   0  0  0
 137  4  0   0   0   0  0  0
 138  0  4   0   0   0  0  0
 139  3  0   0   0   0  0  0
 140  0  2   0   0   0  0  0
 141  4  0   0   0   0  0  0
 142  0  3   0   0   0  0  0
 143  4  0   0   0   0  0  0
 144  0  4   0   0   0  0  0
 145  3  0   0   0   0  0  0
 146  0  2   0   0   0  0  0
 147  4  0   0   0   0  0  0
 148  0  3   0   0   0  0  0
 149  4  0   0   0   0  0  0
 150  0  4   0   0   0  0  0
 151  3  0   0   0   0  0  0
 152  0  2   0   0   0  0  0
 153  4  0   0   0   0  0  0
 154  0  3   0   0   0  0  0
 155  4  0   0   0   0  0  0
 156  0  4   0   0   0  0  0
 157  3  0   0   0   0  0  0
 158  0  2   0   0   0  0  0
 159  4  0   0   0   0  0  0
 160  0  3   0   0   0  0  0
 161  4  0   0   0   0  0  0
 162  0  4   0   0   0  0  0
 163  3  0   0   0   0  0  0
 164  0  2   0   0   0  0  0
 165  4  0   0   0   0  0  0
 166  0  3   0   0   0  0  0
 167  4  0   0   0   0  0  0
 168  0  4   0   0   0  0  0
 169  3  0   0   0   0  0  0
 170  0  2   0   0   0  0  0
 171  4  0   0   0   0  0  0
 172  0  3   0   0   0  0  0
 173  4  0   0   0   0  0  0
 174  0  4   0   0   0  0  0
 175  3  0   0   0   0  0  0
 176  0  2   0   0   0  0  0
 177  4  0   0   0   0  0  0
 178  0  3   0   0   0  0  0
 179  4  0   0   0   0  0  0
 180  0  4   0   0   0  0  0
 181  3  0   0   0   0  0  0
 182  0  2   0   0   0  0  0
 183  4  0   0   0   0  0  0
 184  0  3   0   0   0  0  0
 185  4  0   0   0   0  0  0
 186  0  4   0   0   0  0  0
 187  3  0   0   0   0  0  0
 188  0  2   0   0   0  0  0
 189  4  0   0   0   0  0  0
 190  0  3   0   0   0  0  0
 191  4  0   0   0   0  0  0
 192  0  4   0   0   0  0  0
 193  0  0   1   1   1  0  0
 194  0  0   0   0   0  1  0
 195  1  0   0   0   0  0  0
 196  0  5   0   0   0  0  0
 197  4  0   0   0   0  0  0
 198  0  6   0   0   0  0  0
 199  4  0   0   0   0  0  0
 200  0  7   0   0   0  0  0
 201  3  0   0   0   0  0  0
 202  0  5   0   0   0  0  0
 203  4  0   0   0   0  0  0
 204  0  6   0   0   0  0  0
 205  4  0   0   0   0  0  0
 206  0  7   0   0   0  0  0
 207  3  0   0   0   0  0  0
 208  0  5   0   0   0  0  0
 209  4  0   0   0   0  0  0
 210  0  6   0   0   0  0  0
 211  4  0   0   0   0  0  0
 212  0  7   0   0   0  0  0
 213  3  0   0   0   0  0  0
 214  0  5   0   0   0  0  0
 215  4  0   0   0   0  0  0
 216  0  6   0   0   0  0  0
 217  4  0   0   0   0  0  0
 218  0  7   0   0   0  0  0
 219  3  0   0   0   0  0  0
 220  0  5   0   0   0  0  0
 221  4  0   0   0   0  0  0
 222  0  6   0   0   0  0  0
 223  4  0   0   0   0  0  0
 224  0  7   0   0   0  0  0
 225  3  0   0   0   0  0  0
 226  0  5   0   0   0  0  0
 227  4  0   0   0   0  0  0
 228  0  6   0   0   0  0  0
 229  4  0   0   0   0  0  0
 230  0  7   0   0   0  0  0
 231  3  0   0   0   0  0  0
 232  0  5   0   0   0  0  0
 233  4  0   0   0   0  0  0
 234  0  6   0   0   0  0  0
 235  4  0   0   0   0  0  0
 236  0  7   0   0   0  0  0
 237  3  0   0   0   0  0  0
 238  0  5   0   0   0  0  0
 239  4  0   0   0   0  0  0
 240  0  6   0   0   0  0  0
 241  4  0   0   0   0  0  0
 242  0  7   0   0   0  0  0
 243  3  0   0   0   0  0  0
 244  0  5   0   0   0  0  0
 245  4  0   0   0   0  0  0
 246  0  6   0   0   0  0  0
 247  4  0   0   0   0  0  0
 248  0  7   0   0   0  0  0
 249  3  0   0   0   0  0  0
 250  0  5   0   0   0  0  0
 251  4  0   0   0   0  0  0
 252  0  6   0   0   0  0  0
 253  4  0   0   0   0  0  0
 254  0  7   0   0   0  0  0
 255  3  0   0   0   0  0  0
 256  0  5   0   0   0  0  0
 257  4  0   0   0   0  0  0
 258  0  6   0   0   0  0  0
 259  4  0   0   0   0  0  0
 260  0  7   0   0   0  0  0
 261  3  0   0   0   0  0  0
 262  0  5   0   0   0  0  0
 263  4  0   0   0   0  0  0
 264  0  6   0   0   0  0  0
 265  4  0   0   0   0  0  0
 266  0  7   0   0   0  0  0
 267  3  0   0   0   0  0  0
 268  0  5   0   0   0  0  0
 269  4  0   0   0   0  0  0
 270  0  6   0   0   0  0  0
 271  4  0   0   0   0  0  0
 272  0  7   0   0   0  0  0
 273  3  0   0   0   0  0  0
 274  0  5   0   0   0  0  0
 275  4  0   0   0   0  0  0
 276  0  6   0   0   0  0  0
 277  4  0   0   0   0  0  0
 278  0  7   0   0   0  0  0
 279  3  0   0   0   0  0  0
 280  0  5   0   0   0  0  0
 281  4  0   0   0   0  0  0
 282  0  6   0   0   0  0  0
 283  4  0   0   0   0  0  0
 284  0  7   0   0   0  0  0
 285  3  0   0   0   0  0  0
 286  0  5   0   0   0  0  0
 287  4  0   0   0   0  0  0
 288  0  6   0   0   0  0  0
 289  4  0   0   0   0  0  0
 290  0  7   0   0   0  0  0
 291  3  0   0   0   0  0  0
 292  0  5   0   0   0  0  0
 293  4  0   0   0   0  0  0
 294  0  6   0   0   0  0  0
 295  4  0   0   0   0  0  0
 296  0  7   0   0   0  0  0
 297  3  0   0   0   0  0  0
 298  0  5   0   0   0  0  0
 299  4  0   0   0   0  0  0
 300  0  6   0   0   0  0  0
 301  4  0   0   0   0  0  0
 302  0  7   0   0   0  0  0
 303  3  0   0   0   0  0  0
 304  0  5   0   0   0  0  0
 305  4  0   0   0   0  0  0
 306  0  6   0   0   0  0  0
 307  4  0   0   0   0  0  0
 308  0  7   0   0   0  0  0
 309  0  0   1   1   1  0  0
 310  0  0   0   0   0  1  0
 311  1  0   0   0   0  0  0
 312  0  8   0   0   0  0  0
 313  4  0   0   0   0  0  0
 314  0  9   0   0   0  0  0
 315  4  0   0   0   0  0  0
[RF]
1      85.1528 1 2 100 -199258 0
2      26.2842 3 4 100 0 -1.5708
3      85.1528 1 2 100 -510.917 0
4      26.2842 3 4 100 0 -319.448
5      26.9455 3 4 100 0 -1.5708
6      85.1528 1 2 100 -498.144 0
7      26.9455 3 4 100 0 -311.422
8      27.6406 3 4 100 0 -1.5708
9      85.1528 1 2 100 -485.371 0
10      27.6406 3 4 100 0 -303.397
11      28.3721 3 4 100 0 -1.5708
12      85.1528 1 2 100 -472.598 0
13      28.3721 3 4 100 0 -295.371
14       29.143 3 4 100 0 -1.5708
15      85.1528 1 2 100 -459.825 0
16       29.143 3 4 100 0 -287.346
17      29.9564 3 4 100 0 -1.5708
18      85.1528 1 2 100 -447.052 0
19      29.9564 3 4 100 0 -279.32
20      30.8159 3 4 100 0 -1.5708
21      85.1528 1 2 100 -434.279 0
22      30.8159 3 4 100 0 -271.295
23      31.7255 3 4 100 0 -1.5708
24      85.1528 1 2 100 -421.506 0
25      31.7255 3 4 100 0 -263.269
26      32.6897 3 4 100 0 -1.5708
27      85.1528 1 2 100 -408.733 0
28      32.6897 3 4 100 0 -255.244
29      33.7134 3 4 100 0 -1.5708
30      85.1528 1 2 100 -395.961 0
31      33.7134 3 4 100 0 -247.219
32      34.8022 3 4 100 0 -1.5708
33      85.1528 1 2 100 -383.188 0
34      34.8022 3 4 100 0 -239.193
35      35.9625 3 4 100 0 -1.5708
36      85.1528 1 2 100 -370.415 0
37      35.9625 3 4 100 0 -231.168
38      37.2014 3 4 100 0 -1.5708
39      85.1528 1 2 100 -357.642 0
40      37.2014 3 4 100 0 -223.142
41      38.5269 3 4 100 0 -1.5708
42      85.1528 1 2 100 -344.869 0
43      38.5269 3 4 100 0 -215.117
44      39.9483 3 4 100 0 -1.5708
45      85.1528 1 2 100 -332.096 0
46      39.9483 3 4 100 0 -207.091
47      41.4762 3 4 100 0 -1.5708
48      85.1528 1 2 100 -319.323 0
49      41.4762 3 4 100 0 -199.066
50      43.1225 3 4 100 0 -1.5708
51      85.1528 1 2 100 -306.55 0
52      43.1225 3 4 100 0 -191.04
53      44.9014 3 4 100 0 -1.5708
54      85.1528 1 2 100 -293.777 0
55      44.9014 3 4 100 0 -183.015
56      46.8289 3 4 100 0 -1.5708
57      85.1528 1 2 100 -281.004 0
58      46.8289 3 4 100 0 -174.989
59      48.9238 3 4 100 0 -1.5708
60      85.1528 1 2 100 -268.231 0
61      48.9238 3 4 100 0 -166.964
62      51.2082 3 4 100 0 -1.5708
63      85.1528 1 2 100 -255.458 0
64      51.2082 3 4 100 0 -158.938
65      53.7078 3 4 100 0 -1.5708
66      85.1528 1 2 100 -242.685 0
67      53.7078 3 4 100 0 -150.913
68      56.4532 3 4 100 0 -1.5708
69      85.1528 1 2 100 -229.913 0
70      56.4532 3 4 100 0 -142.888
71      59.4805 3 4 100 0 -1.5708
72      85.1528 1 2 100 -217.14 0
73      59.4805 3 4 100 0 -134.862
74       62.833 3 4 100 0 -1.5708
75      85.1528 1 2 100 -204.367 0
76       62.833 3 4 100 0 -126.837
77      66.5625 3 4 100 0 -1.5708
78      85.1528 1 2 100 -191.594 0
79      66.5625 3 4 100 0 -118.811
80      70.7315 3 4 100 0 -1.5708
81      85.1528 1 2 100 -178.821 0
82      70.7315 3 4 100 0 -110.786
83      75.4158 3 4 100 0 -1.5708
84      85.1528 1 2 100 -166.048 0
85      75.4158 3 4 100 0 -102.76
86      80.7072 3 4 100 0 -1.5708
87      85.1528 1 2 100 -153.275 0
88      80.7072 3 4 100 0 -94.7348
89      86.7178 3 4 100 0 -1.5708
90      85.1528 1 2 100 -140.502 0
91      86.7178 3 4 100 0 -86.7093
92      93.5835 3 4 100 0 -1.5708
93      85.1528 1 2 100 -127.729 0
94      93.5835 3 4 100 0 -78.6838
95      101.469 3 4 100 0 -1.5708
96      85.1528 1 2 100 -114.956 0
97      101.469 3 4 100 0 -70.6584
98      110.571 3 4 100 0 -1.5708
99      85.1528 1 2 100 -102.183 0
100      110.571 3 4 100 0 -62.6329
101      121.119 3 4 100 0 -1.5708
102      85.1528 1 2 100 -89.4104 0
103      121.119 3 4 100 0 -54.6074
104      133.369 3 4 100 0 -1.5708
105      85.1528 1 2 100 -76.6375 0
106      133.369 3 4 100 0 -46.582
107      147.584 3 4 100 0 -1.5708
108      85.1528 1 2 100 -63.8646 0
109      147.584 3 4 100 0 -38.5565
110       163.99 3 4 100 0 -1.5708
111      85.1528 1 2 100 -51.0917 0
112       163.99 3 4 100 0 -30.5311
113      182.701 3 4 100 0 -1.5708
114      85.1528 1 2 100 -38.3188 0
115      182.701 3 4 100 0 -22.5056
116      203.613 3 4 100 0 -1.5708
117      85.1528 1 2 100 -25.5458 0
118      203.613 3 4 100 0 -14.4801
119      226.303 3 4 100 0 -1.5708
120      85.1528 1 2 100 -12.7729 0
121      226.303 3 4 100 0 -6.45467
122          250 3 5 100 0 -1.5708
123      85.1528 1 2 100 0 0
124          250 3 5 100 0 1.5708
125      226.303 3 5 100 0 -1.5708
126      85.1528 1 2 100 12.7729 0
127      226.303 3 5 100 0 9.59626
128      203.613 3 5 100 0 -1.5708
129      85.1528 1 2 100 25.5458 0
130      203.613 3 5 100 0 17.6217
131      182.701 3 5 100 0 -1.5708
132      85.1528 1 2 100 38.3188 0
133      182.701 3 5 100 0 25.6472
134       163.99 3 5 100 0 -1.5708
135      85.1528 1 2 100 51.0917 0
136       163.99 3 5 100 0 33.6726
137      147.584 3 5 100 0 -1.5708
138      85.1528 1 2 100 63.8646 0
139      147.584 3 5 100 0 41.6981
140      133.369 3 5 100 0 -1.5708
141      85.1528 1 2 100 76.6375 0
142      133.369 3 5 100 0 49.7236
143      121.119 3 5 100 0 -1.5708
144      85.1528 1 2 100 89.4104 0
145      121.119 3 5 100 0 57.749
146      110.571 3 5 100 0 -1.5708
147      85.1528 1 2 100 102.183 0
148      110.571 3 5 100 0 65.7745
149      101.469 3 5 100 0 -1.5708
150      85.1528 1 2 100 114.956 0
151      101.469 3 5 100 0 73.8
152      93.5835 3 5 100 0 -1.5708
153      85.1528 1 2 100 127.729 0
154      93.5835 3 5 100 0 81.8254
155      86.7178 3 5 100 0 -1.5708
156      85.1528 1 2 100 140.502 0
157      86.7178 3 5 100 0 89.8509
158      80.7072 3 5 100 0 -1.5708
159      85.1528 1 2 100 153.275 0
160      80.7072 3 5 100 0 97.8763
161      75.4158 3 5 100 0 -1.5708
162      85.1528 1 2 100 166.048 0
163      75.4158 3 5 100 0 105.902
164      70.7315 3 5 100 0 -1.5708
165      85.1528 1 2 100 178.821 0
166      70.7315 3 5 100 0 113.927
167      66.5625 3 5 100 0 -1.5708
168      85.1528 1 2 100 191.594 0
169      66.5625 3 5 100 0 121.953
170       62.833 3 5 100 0 -1.5708
171      85.1528 1 2 100 204.367 0
172       62.833 3 5 100 0 129.978
173      59.4805 3 5 100 0 -1.5708
174      85.1528 1 2 100 217.14 0
175      59.4805 3 5 100 0 138.004
176      56.4532 3 5 100 0 -1.5708
177      85.1528 1 2 100 229.913 0
178      56.4532 3 5 100 0 146.029
179      53.7078 3 5 100 0 -1.5708
180      85.1528 1 2 100 242.685 0
181      53.7078 3 5 100 0 154.055
182      51.2082 3 5 100 0 -1.5708
183      85.1528 1 2 100 255.458 0
184      51.2082 3 5 100 0 162.08
185      48.9238 3 5 100 0 -1.5708
186      85.1528 1 2 100 268.231 0
187      48.9238 3 5 100 0 170.106
188      46.8289 3 5 100 0 -1.5708
189      85.1528 1 2 100 281.004 0
190      46.8289 3 5 100 0 178.131
191      44.9014 3 5 100 0 -1.5708
192      85.1528 1 2 100 293.777 0
193      44.9014 3 5 100 0 186.156
194      43.1225 3 5 100 0 -1.5708
195      85.1528 1 2 100 306.55 0
196      43.1225 3 5 100 0 194.182
197      41.4762 3 5 100 0 -1.5708
198      85.1528 1 2 100 319.323 0
199      41.4762 3 5 100 0 202.207
200      39.9483 3 5 100 0 -1.5708
201      85.1528 1 2 100 332.096 0
202      39.9483 3 5 100 0 210.233
203      38.5269 3 5 100 0 -1.5708
204      85.1528 1 2 100 344.869 0
205      38.5269 3 5 100 0 218.258
206      37.2014 3 5 100 0 -1.5708
207      85.1528 1 2 100 357.642 0
208      37.2014 3 5 100 0 226.284
209      35.9625 3 5 100 0 -1.5708
210      85.1528 1 2 100 370.415 0
211      35.9625 3 5 100 0 234.309
212      34.8022 3 5 100 0 -1.5708
213      85.1528 1 2 100 383.188 0
214      34.8022 3 5 100 0 242.335
215      33.7134 3 5 100 0 -1.5708
216      85.1528 1 2 100 395.961 0
217      33.7134 3 5 100 0 250.36
218      32.6897 3 5 100 0 -1.5708
219      85.1528 1 2 100 408.733 0
220      32.6897 3 5 100 0 258.386
221      31.7255 3 5 100 0 -1.5708
222      85.1528 1 2 100 421.506 0
223      31.7255 3 5 100 0 266.411
224      30.8159 3 5 100 0 -1.5708
225      85.1528 1 2 100 434.279 0
226      30.8159 3 5 100 0 274.437
227      29.9564 3 5 100 0 -1.5708
228      85.1528 1 2 100 447.052 0
229      29.9564 3 5 100 0 282.462
230       29.143 3 5 100 0 -1.5708
231      85.1528 1 2 100 459.825 0
232       29.143 3 5 100 0 290.487
233      28.3721 3 5 100 0 -1.5708
234      85.1528 1 2 100 472.598 0
235      28.3721 3 5 100 0 298.513
236      27.6406 3 5 100 0 -1.5708
237      85.1528 1 2 100 485.371 0
238      27.6406 3 5 100 0 306.538
239      26.9455 3 5 100 0 -1.5708
240      85.1528 1 2 100 498.144 0
241      26.9455 3 5 100 0 314.564
242      26.2842 3 5 100 0 -1.5708
243      85.1528 1 2 100 510.917 0
244      26.2842 3 5 100 0 322.589

# Format of trapezoid gradients:
# id amplitude rise flat fall delay
# ..      Hz/m   us   us   us    us
[TRAP]
 1  1.36243e+06 1000 4500 1000   0

# Format of ADC events:
# id num dwell delay freq phase
# ..  ..    ns    us   Hz   rad
[ADC]
1 1 1000000 0 0 0

# Format of delays:
# id delay (us)
[DELAYS]
1 3500000
2 1250
3 2500
4 120

# Sequence Shapes
[SHAPES]

shape_id 1
num_samples 100030
1
0
0
99997
-1
0
0
27

shape_id 2
num_samples 100030
0
0
100028

shape_id 3
num_samples 1030
1
0
0
997
-1
0
0
27

shape_id 4
num_samples 1030
0.5
0
0
997
-0.5
0
0
27

shape_id 5
num_samples 1030
0
0
1028

