# Pulseq sequence file
# Created by MATLAB mr toolbox

# Created for Pulseq-CEST
# https://pulseq-cest.github.io/
# Created by: Kai Herz
# Created at: 14-Dec-2020 16:49:25

[VERSION]
major 1
minor 3
revision 0

[DEFINITIONS]
B0 3 
B1cwpe 3.49448 
DCsat 0.909091 
M0_offset  
Trec 10 
Trec_M0 10 
Tsat 0.32 
n_pulses 3 
num_meas 30 
offsets_ppm -3.5 -3.4 -3.3 -3.2 -3.1 -3 -2.9 -2.8 -2.7 -2.6 -2.5 -0.3 -0.2 -0.1 0 0.1 0.2 0.3 2.5 2.6 2.7 2.8 2.9 3 3.1 3.2 3.3 3.4 3.5 
seq_id_string pHw_3T_001_3p5uT_3Gauss_DC90_320ms_braintumor 
td 0.01 
tp 0.1 

# Format of blocks:
#  #  D RF  GX  GY  GZ ADC EXT
[BLOCKS]
  1  1  0   0   0   0  0  0
  2  0  0   0   0   0  1  0
  3  1  0   0   0   0  0  0
  4  0  1   0   0   0  0  0
  5  2  0   0   0   0  0  0
  6  0  2   0   0   0  0  0
  7  2  0   0   0   0  0  0
  8  0  3   0   0   0  0  0
  9  0  0   0   1   0  0  0
 10  0  0   0   0   0  1  0
 11  1  0   0   0   0  0  0
 12  0  4   0   0   0  0  0
 13  2  0   0   0   0  0  0
 14  0  5   0   0   0  0  0
 15  2  0   0   0   0  0  0
 16  0  6   0   0   0  0  0
 17  0  0   0   1   0  0  0
 18  0  0   0   0   0  1  0
 19  1  0   0   0   0  0  0
 20  0  7   0   0   0  0  0
 21  2  0   0   0   0  0  0
 22  0  8   0   0   0  0  0
 23  2  0   0   0   0  0  0
 24  0  9   0   0   0  0  0
 25  0  0   0   1   0  0  0
 26  0  0   0   0   0  1  0
 27  1  0   0   0   0  0  0
 28  0 10   0   0   0  0  0
 29  2  0   0   0   0  0  0
 30  0 11   0   0   0  0  0
 31  2  0   0   0   0  0  0
 32  0 12   0   0   0  0  0
 33  0  0   0   1   0  0  0
 34  0  0   0   0   0  1  0
 35  1  0   0   0   0  0  0
 36  0 13   0   0   0  0  0
 37  2  0   0   0   0  0  0
 38  0 14   0   0   0  0  0
 39  2  0   0   0   0  0  0
 40  0 15   0   0   0  0  0
 41  0  0   0   1   0  0  0
 42  0  0   0   0   0  1  0
 43  1  0   0   0   0  0  0
 44  0 16   0   0   0  0  0
 45  2  0   0   0   0  0  0
 46  0 17   0   0   0  0  0
 47  2  0   0   0   0  0  0
 48  0 18   0   0   0  0  0
 49  0  0   0   1   0  0  0
 50  0  0   0   0   0  1  0
 51  1  0   0   0   0  0  0
 52  0 19   0   0   0  0  0
 53  2  0   0   0   0  0  0
 54  0 20   0   0   0  0  0
 55  2  0   0   0   0  0  0
 56  0 21   0   0   0  0  0
 57  0  0   0   1   0  0  0
 58  0  0   0   0   0  1  0
 59  1  0   0   0   0  0  0
 60  0 22   0   0   0  0  0
 61  2  0   0   0   0  0  0
 62  0 23   0   0   0  0  0
 63  2  0   0   0   0  0  0
 64  0 24   0   0   0  0  0
 65  0  0   0   1   0  0  0
 66  0  0   0   0   0  1  0
 67  1  0   0   0   0  0  0
 68  0 25   0   0   0  0  0
 69  2  0   0   0   0  0  0
 70  0 26   0   0   0  0  0
 71  2  0   0   0   0  0  0
 72  0 27   0   0   0  0  0
 73  0  0   0   1   0  0  0
 74  0  0   0   0   0  1  0
 75  1  0   0   0   0  0  0
 76  0 28   0   0   0  0  0
 77  2  0   0   0   0  0  0
 78  0 29   0   0   0  0  0
 79  2  0   0   0   0  0  0
 80  0 30   0   0   0  0  0
 81  0  0   0   1   0  0  0
 82  0  0   0   0   0  1  0
 83  1  0   0   0   0  0  0
 84  0 31   0   0   0  0  0
 85  2  0   0   0   0  0  0
 86  0 32   0   0   0  0  0
 87  2  0   0   0   0  0  0
 88  0 33   0   0   0  0  0
 89  0  0   0   1   0  0  0
 90  0  0   0   0   0  1  0
 91  1  0   0   0   0  0  0
 92  0 34   0   0   0  0  0
 93  2  0   0   0   0  0  0
 94  0 35   0   0   0  0  0
 95  2  0   0   0   0  0  0
 96  0 36   0   0   0  0  0
 97  0  0   0   1   0  0  0
 98  0  0   0   0   0  1  0
 99  1  0   0   0   0  0  0
100  0 37   0   0   0  0  0
101  2  0   0   0   0  0  0
102  0 38   0   0   0  0  0
103  2  0   0   0   0  0  0
104  0 39   0   0   0  0  0
105  0  0   0   1   0  0  0
106  0  0   0   0   0  1  0
107  1  0   0   0   0  0  0
108  0 40   0   0   0  0  0
109  2  0   0   0   0  0  0
110  0 41   0   0   0  0  0
111  2  0   0   0   0  0  0
112  0 42   0   0   0  0  0
113  0  0   0   1   0  0  0
114  0  0   0   0   0  1  0
115  1  0   0   0   0  0  0
116  0 43   0   0   0  0  0
117  2  0   0   0   0  0  0
118  0 43   0   0   0  0  0
119  2  0   0   0   0  0  0
120  0 43   0   0   0  0  0
121  0  0   0   1   0  0  0
122  0  0   0   0   0  1  0
123  1  0   0   0   0  0  0
124  0 44   0   0   0  0  0
125  2  0   0   0   0  0  0
126  0 45   0   0   0  0  0
127  2  0   0   0   0  0  0
128  0 46   0   0   0  0  0
129  0  0   0   1   0  0  0
130  0  0   0   0   0  1  0
131  1  0   0   0   0  0  0
132  0 47   0   0   0  0  0
133  2  0   0   0   0  0  0
134  0 48   0   0   0  0  0
135  2  0   0   0   0  0  0
136  0 49   0   0   0  0  0
137  0  0   0   1   0  0  0
138  0  0   0   0   0  1  0
139  1  0   0   0   0  0  0
140  0 50   0   0   0  0  0
141  2  0   0   0   0  0  0
142  0 51   0   0   0  0  0
143  2  0   0   0   0  0  0
144  0 52   0   0   0  0  0
145  0  0   0   1   0  0  0
146  0  0   0   0   0  1  0
147  1  0   0   0   0  0  0
148  0 53   0   0   0  0  0
149  2  0   0   0   0  0  0
150  0 54   0   0   0  0  0
151  2  0   0   0   0  0  0
152  0 55   0   0   0  0  0
153  0  0   0   1   0  0  0
154  0  0   0   0   0  1  0
155  1  0   0   0   0  0  0
156  0 56   0   0   0  0  0
157  2  0   0   0   0  0  0
158  0 57   0   0   0  0  0
159  2  0   0   0   0  0  0
160  0 58   0   0   0  0  0
161  0  0   0   1   0  0  0
162  0  0   0   0   0  1  0
163  1  0   0   0   0  0  0
164  0 59   0   0   0  0  0
165  2  0   0   0   0  0  0
166  0 60   0   0   0  0  0
167  2  0   0   0   0  0  0
168  0 61   0   0   0  0  0
169  0  0   0   1   0  0  0
170  0  0   0   0   0  1  0
171  1  0   0   0   0  0  0
172  0 62   0   0   0  0  0
173  2  0   0   0   0  0  0
174  0 63   0   0   0  0  0
175  2  0   0   0   0  0  0
176  0 64   0   0   0  0  0
177  0  0   0   1   0  0  0
178  0  0   0   0   0  1  0
179  1  0   0   0   0  0  0
180  0 65   0   0   0  0  0
181  2  0   0   0   0  0  0
182  0 66   0   0   0  0  0
183  2  0   0   0   0  0  0
184  0 67   0   0   0  0  0
185  0  0   0   1   0  0  0
186  0  0   0   0   0  1  0
187  1  0   0   0   0  0  0
188  0 68   0   0   0  0  0
189  2  0   0   0   0  0  0
190  0 69   0   0   0  0  0
191  2  0   0   0   0  0  0
192  0 70   0   0   0  0  0
193  0  0   0   1   0  0  0
194  0  0   0   0   0  1  0
195  1  0   0   0   0  0  0
196  0 71   0   0   0  0  0
197  2  0   0   0   0  0  0
198  0 72   0   0   0  0  0
199  2  0   0   0   0  0  0
200  0 73   0   0   0  0  0
201  0  0   0   1   0  0  0
202  0  0   0   0   0  1  0
203  1  0   0   0   0  0  0
204  0 74   0   0   0  0  0
205  2  0   0   0   0  0  0
206  0 75   0   0   0  0  0
207  2  0   0   0   0  0  0
208  0 76   0   0   0  0  0
209  0  0   0   1   0  0  0
210  0  0   0   0   0  1  0
211  1  0   0   0   0  0  0
212  0 77   0   0   0  0  0
213  2  0   0   0   0  0  0
214  0 78   0   0   0  0  0
215  2  0   0   0   0  0  0
216  0 79   0   0   0  0  0
217  0  0   0   1   0  0  0
218  0  0   0   0   0  1  0
219  1  0   0   0   0  0  0
220  0 80   0   0   0  0  0
221  2  0   0   0   0  0  0
222  0 81   0   0   0  0  0
223  2  0   0   0   0  0  0
224  0 82   0   0   0  0  0
225  0  0   0   1   0  0  0
226  0  0   0   0   0  1  0
227  1  0   0   0   0  0  0
228  0 83   0   0   0  0  0
229  2  0   0   0   0  0  0
230  0 84   0   0   0  0  0
231  2  0   0   0   0  0  0
232  0 85   0   0   0  0  0
233  0  0   0   1   0  0  0
234  0  0   0   0   0  1  0

# Format of RF events:
# id amplitude mag_id phase_id delay freq phase
# ..        Hz   ....     ....    us   Hz   rad
[RF]
1      255.458 1 2 100 -447.052 0
2      255.458 1 2 100 -447.052 1.85497
3      255.458 1 2 100 -447.052 3.70993
4      255.458 1 2 100 -434.279 0
5      255.458 1 2 100 -434.279 3.59716
6      255.458 1 2 100 -434.279 0.911141
7      255.458 1 2 100 -421.506 0
8      255.458 1 2 100 -421.506 5.33936
9      255.458 1 2 100 -421.506 4.39553
10      255.458 1 2 100 -408.733 0
11      255.458 1 2 100 -408.733 0.798371
12      255.458 1 2 100 -408.733 1.59674
13      255.458 1 2 100 -395.961 0
14      255.458 1 2 100 -395.961 2.54057
15      255.458 1 2 100 -395.961 5.08114
16      255.458 1 2 100 -383.188 0
17      255.458 1 2 100 -383.188 4.28276
18      255.458 1 2 100 -383.188 2.28234
19      255.458 1 2 100 -370.415 0
20      255.458 1 2 100 -370.415 6.02496
21      255.458 1 2 100 -370.415 5.76674
22      255.458 1 2 100 -357.642 0
23      255.458 1 2 100 -357.642 1.48397
24      255.458 1 2 100 -357.642 2.96795
25      255.458 1 2 100 -344.869 0
26      255.458 1 2 100 -344.869 3.22617
27      255.458 1 2 100 -344.869 0.169154
28      255.458 1 2 100 -332.096 0
29      255.458 1 2 100 -332.096 4.96837
30      255.458 1 2 100 -332.096 3.65355
31      255.458 1 2 100 -319.323 0
32      255.458 1 2 100 -319.323 0.427378
33      255.458 1 2 100 -319.323 0.854756
34      255.458 1 2 100 -38.3188 0
35      255.458 1 2 100 -38.3188 1.0566
36      255.458 1 2 100 -38.3188 2.11319
37      255.458 1 2 100 -25.5458 0
38      255.458 1 2 100 -25.5458 2.79879
39      255.458 1 2 100 -25.5458 5.59758
40      255.458 1 2 100 -12.7729 0
41      255.458 1 2 100 -12.7729 4.54099
42      255.458 1 2 100 -12.7729 2.79879
43      255.458 1 2 100 0 0
44      255.458 1 2 100 12.7729 0
45      255.458 1 2 100 12.7729 1.7422
46      255.458 1 2 100 12.7729 3.48439
47      255.458 1 2 100 25.5458 0
48      255.458 1 2 100 25.5458 3.48439
49      255.458 1 2 100 25.5458 0.685602
50      255.458 1 2 100 38.3188 0
51      255.458 1 2 100 38.3188 5.22659
52      255.458 1 2 100 38.3188 4.17
53      255.458 1 2 100 319.323 0
54      255.458 1 2 100 319.323 5.85581
55      255.458 1 2 100 319.323 5.42843
56      255.458 1 2 100 332.096 0
57      255.458 1 2 100 332.096 1.31482
58      255.458 1 2 100 332.096 2.62964
59      255.458 1 2 100 344.869 0
60      255.458 1 2 100 344.869 3.05702
61      255.458 1 2 100 344.869 6.11403
62      255.458 1 2 100 357.642 0
63      255.458 1 2 100 357.642 4.79921
64      255.458 1 2 100 357.642 3.31524
65      255.458 1 2 100 370.415 0
66      255.458 1 2 100 370.415 0.258224
67      255.458 1 2 100 370.415 0.516447
68      255.458 1 2 100 383.188 0
69      255.458 1 2 100 383.188 2.00042
70      255.458 1 2 100 383.188 4.00084
71      255.458 1 2 100 395.961 0
72      255.458 1 2 100 395.961 3.74262
73      255.458 1 2 100 395.961 1.20205
74      255.458 1 2 100 408.733 0
75      255.458 1 2 100 408.733 5.48481
76      255.458 1 2 100 408.733 4.68644
77      255.458 1 2 100 421.506 0
78      255.458 1 2 100 421.506 0.943825
79      255.458 1 2 100 421.506 1.88765
80      255.458 1 2 100 434.279 0
81      255.458 1 2 100 434.279 2.68602
82      255.458 1 2 100 434.279 5.37204
83      255.458 1 2 100 447.052 0
84      255.458 1 2 100 447.052 4.42822
85      255.458 1 2 100 447.052 2.57325

# Format of trapezoid gradients:
# id amplitude rise flat fall delay
# ..      Hz/m   us   us   us    us
[TRAP]
 1  1.36243e+06 1000 4500 1000   0

# Format of ADC events:
# id num dwell delay freq phase
# ..  ..    ns    us   Hz   rad
[ADC]
1 1 1000000 0 0 0

# Format of delays:
# id delay (us)
[DELAYS]
1 10000000
2 10000

# Sequence Shapes
[SHAPES]

shape_id 1
num_samples 100030
0
0
5
1e-07
0
0
2
1e-07
0
0
1
1e-07
0
0
0
1e-07
0
1e-07
0
1e-07
0
0
0
1e-07
0
1e-07
1e-07
0
0
1e-07
0
1e-07
1e-07
0
0
1e-07
1e-07
1
0
1e-07
1e-07
2
0
1e-07
1e-07
13
2e-07
1e-07
1e-07
2
2e-07
1e-07
1e-07
0
2e-07
1e-07
1e-07
0
2e-07
1e-07
1e-07
0
2e-07
1e-07
2e-07
1e-07
2e-07
1e-07
2e-07
1e-07
2e-07
1e-07
2e-07
2e-07
0
1e-07
2e-07
2e-07
0
1e-07
2e-07
2e-07
2
1e-07
2e-07
2e-07
5
1e-07
2e-07
2e-07
1
3e-07
2e-07
2e-07
5
3e-07
2e-07
2e-07
2
3e-07
2e-07
2e-07
0
3e-07
2e-07
2e-07
0
3e-07
2e-07
3e-07
2e-07
3e-07
2e-07
3e-07
2e-07
3e-07
2e-07
3e-07
3e-07
0
2e-07
3e-07
2e-07
3e-07
3e-07
1
2e-07
3e-07
3e-07
2
2e-07
3e-07
3e-07
14
4e-07
3e-07
3e-07
2
4e-07
3e-07
3e-07
0
4e-07
3e-07
3e-07
0
4e-07
3e-07
4e-07
3e-07
3e-07
0
4e-07
3e-07
4e-07
3e-07
4e-07
4e-07
0
3e-07
4e-07
3e-07
4e-07
4e-07
0
3e-07
4e-07
4e-07
1
3e-07
4e-07
4e-07
2
3e-07
4e-07
4e-07
13
5e-07
4e-07
4e-07
2
5e-07
4e-07
4e-07
0
5e-07
4e-07
4e-07
0
5e-07
4e-07
5e-07
4e-07
4e-07
0
5e-07
4e-07
5e-07
4e-07
5e-07
4e-07
5e-07
5e-07
0
4e-07
5e-07
5e-07
0
4e-07
5e-07
5e-07
0
4e-07
5e-07
5e-07
2
4e-07
5e-07
5e-07
15
6e-07
5e-07
5e-07
1
6e-07
5e-07
5e-07
1
6e-07
5e-07
5e-07
0
6e-07
5e-07
6e-07
5e-07
6e-07
5e-07
6e-07
5e-07
6e-07
5e-07
6e-07
5e-07
6e-07
6e-07
0
5e-07
6e-07
6e-07
0
5e-07
6e-07
6e-07
1
5e-07
6e-07
6e-07
4
5e-07
6e-07
6e-07
5
7e-07
6e-07
6e-07
4
7e-07
6e-07
6e-07
1
7e-07
6e-07
6e-07
0
7e-07
6e-07
6e-07
0
7e-07
6e-07
7e-07
6e-07
7e-07
6e-07
7e-07
6e-07
7e-07
6e-07
7e-07
6e-07
7e-07
7e-07
0
6e-07
7e-07
7e-07
1
6e-07
7e-07
7e-07
1
6e-07
7e-07
7e-07
15
8e-07
7e-07
7e-07
2
8e-07
7e-07
7e-07
0
8e-07
7e-07
7e-07
0
8e-07
7e-07
7e-07
0
8e-07
7e-07
8e-07
7e-07
8e-07
7e-07
8e-07
8e-07
0
7e-07
8e-07
7e-07
8e-07
8e-07
0
7e-07
8e-07
8e-07
1
7e-07
8e-07
8e-07
2
7e-07
8e-07
8e-07
12
9e-07
8e-07
8e-07
2
9e-07
8e-07
8e-07
1
9e-07
8e-07
8e-07
0
9e-07
8e-07
9e-07
8e-07
8e-07
0
9e-07
8e-07
9e-07
8e-07
9e-07
9e-07
0
8e-07
9e-07
8e-07
9e-07
9e-07
0
8e-07
9e-07
9e-07
1
8e-07
9e-07
9e-07
1
8e-07
9e-07
9e-07
14
1e-06
9e-07
9e-07
2
1e-06
9e-07
9e-07
0
1e-06
9e-07
9e-07
0
1e-06
9e-07
9e-07
0
1e-06
9e-07
1e-06
9e-07
1e-06
9e-07
1e-06
9e-07
1e-06
1e-06
0
9e-07
1e-06
9e-07
1e-06
1e-06
1
9e-07
1e-06
1e-06
1
9e-07
1e-06
1e-06
17
1.1e-06
1e-06
1e-06
1
1.1e-06
1e-06
1e-06
0
1.1e-06
1e-06
1e-06
0
1.1e-06
1e-06
1.1e-06
1e-06
1e-06
0
1.1e-06
1e-06
1.1e-06
1e-06
1.1e-06
1.1e-06
0
1e-06
1.1e-06
1e-06
1.1e-06
1.1e-06
0
1e-06
1.1e-06
1.1e-06
1
1e-06
1.1e-06
1.1e-06
3
1e-06
1.1e-06
1.1e-06
9
1.2e-06
1.1e-06
1.1e-06
3
1.2e-06
1.1e-06
1.1e-06
1
1.2e-06
1.1e-06
1.1e-06
0
1.2e-06
1.1e-06
1.2e-06
1.1e-06
1.1e-06
0
1.2e-06
1.1e-06
1.2e-06
1.1e-06
1.2e-06
1.1e-06
1.2e-06
1.2e-06
0
1.1e-06
1.2e-06
1.2e-06
0
1.1e-06
1.2e-06
1.2e-06
0
1.1e-06
1.2e-06
1.2e-06
1
1.1e-06
1.2e-06
1.2e-06
6
1.1e-06
1.2e-06
1.3e-06
1.2e-06
1.2e-06
7
1.3e-06
1.2e-06
1.2e-06
1
1.3e-06
1.2e-06
1.2e-06
0
1.3e-06
1.2e-06
1.2e-06
0
1.3e-06
1.2e-06
1.3e-06
1.2e-06
1.3e-06
1.2e-06
1.3e-06
1.2e-06
1.3e-06
1.2e-06
1.3e-06
1.2e-06
1.3e-06
1.3e-06
0
1.2e-06
1.3e-06
1.3e-06
0
1.2e-06
1.3e-06
1.3e-06
2
1.2e-06
1.3e-06
1.3e-06
16
1.4e-06
1.3e-06
1.3e-06
1
1.4e-06
1.3e-06
1.3e-06
1
1.4e-06
1.3e-06
1.3e-06
0
1.4e-06
1.3e-06
1.4e-06
1.3e-06
1.4e-06
1.3e-06
1.4e-06
1.3e-06
1.4e-06
1.3e-06
1.4e-06
1.3e-06
1.4e-06
1.4e-06
0
1.3e-06
1.4e-06
1.4e-06
1
1.3e-06
1.4e-06
1.4e-06
1
1.3e-06
1.4e-06
1.4e-06
16
1.5e-06
1.4e-06
1.4e-06
2
1.5e-06
1.4e-06
1.4e-06
0
1.5e-06
1.4e-06
1.4e-06
0
1.5e-06
1.4e-06
1.5e-06
1.4e-06
1.5e-06
1.4e-06
1.4e-06
0
1.5e-06
1.5e-06
0
1.4e-06
1.5e-06
1.4e-06
1.5e-06
1.5e-06
0
1.4e-06
1.5e-06
1.5e-06
0
1.4e-06
1.5e-06
1.5e-06
1
1.4e-06
1.5e-06
1.5e-06
4
1.4e-06
1.5e-06
1.5e-06
5
1.6e-06
1.5e-06
1.5e-06
4
1.6e-06
1.5e-06
1.5e-06
1
1.6e-06
1.5e-06
1.5e-06
0
1.6e-06
1.5e-06
1.5e-06
0
1.6e-06
1.5e-06
1.6e-06
1.5e-06
1.6e-06
1.5e-06
1.6e-06
1.5e-06
1.6e-06
1.5e-06
1.6e-06
1.6e-06
0
1.5e-06
1.6e-06
1.6e-06
0
1.5e-06
1.6e-06
1.6e-06
0
1.5e-06
1.6e-06
1.6e-06
2
1.5e-06
1.6e-06
1.6e-06
13
1.7e-06
1.6e-06
1.6e-06
2
1.7e-06
1.6e-06
1.6e-06
0
1.7e-06
1.6e-06
1.6e-06
0
1.7e-06
1.6e-06
1.6e-06
0
1.7e-06
1.6e-06
1.7e-06
1.6e-06
1.7e-06
1.6e-06
1.7e-06
1.6e-06
1.7e-06
1.6e-06
1.7e-06
1.7e-06
0
1.6e-06
1.7e-06
1.7e-06
0
1.6e-06
1.7e-06
1.7e-06
1
1.6e-06
1.7e-06
1.7e-06
4
1.6e-06
1.7e-06
1.7e-06
6
1.8e-06
1.7e-06
1.7e-06
3
1.8e-06
1.7e-06
1.7e-06
1
1.8e-06
1.7e-06
1.7e-06
0
1.8e-06
1.7e-06
1.7e-06
0
1.8e-06
1.7e-06
1.8e-06
1.7e-06
1.7e-06
0
1.8e-06
1.7e-06
1.8e-06
1.8e-06
0
1.7e-06
1.8e-06
1.7e-06
1.8e-06
1.8e-06
0
1.7e-06
1.8e-06
1.8e-06
0
1.7e-06
1.8e-06
1.8e-06
1
1.7e-06
1.8e-06
1.8e-06
18
1.9e-06
1.8e-06
1.8e-06
1
1.9e-06
1.8e-06
1.8e-06
0
1.9e-06
1.8e-06
1.8e-06
0
1.9e-06
1.8e-06
1.9e-06
1.8e-06
1.9e-06
1.8e-06
1.9e-06
1.8e-06
1.9e-06
1.8e-06
1.9e-06
1.8e-06
1.9e-06
1.9e-06
0
1.8e-06
1.9e-06
1.9e-06
0
1.8e-06
1.9e-06
1.9e-06
1
1.8e-06
1.9e-06
1.9e-06
18
2e-06
1.9e-06
1.9e-06
1
2e-06
1.9e-06
1.9e-06
0
2e-06
1.9e-06
1.9e-06
0
2e-06
1.9e-06
2e-06
1.9e-06
1.9e-06
0
2e-06
1.9e-06
2e-06
2e-06
0
1.9e-06
2e-06
1.9e-06
2e-06
2e-06
0
1.9e-06
2e-06
2e-06
0
1.9e-06
2e-06
2e-06
1
1.9e-06
2e-06
2e-06
4
1.9e-06
2e-06
2e-06
5
2.1e-06
2e-06
2e-06
4
2.1e-06
2e-06
2e-06
1
2.1e-06
2e-06
2e-06
0
2.1e-06
2e-06
2e-06
0
2.1e-06
2e-06
2.1e-06
2e-06
2.1e-06
2e-06
2.1e-06
2e-06
2.1e-06
2e-06
2.1e-06
2.1e-06
0
2e-06
2.1e-06
2.1e-06
0
2e-06
2.1e-06
2.1e-06
0
2e-06
2.1e-06
2.1e-06
3
2e-06
2.1e-06
2.1e-06
11
2.2e-06
2.1e-06
2.1e-06
3
2.2e-06
2.1e-06
2.1e-06
0
2.2e-06
2.1e-06
2.1e-06
0
2.2e-06
2.1e-06
2.1e-06
0
2.2e-06
2.1e-06
2.2e-06
2.1e-06
2.2e-06
2.1e-06
2.2e-06
2.1e-06
2.2e-06
2.2e-06
0
2.1e-06
2.2e-06
2.1e-06
2.2e-06
2.2e-06
0
2.1e-06
2.2e-06
2.2e-06
2
2.1e-06
2.2e-06
2.2e-06
4
2.1e-06
2.2e-06
2.2e-06
3
2.3e-06
2.2e-06
2.2e-06
5
2.3e-06
2.2e-06
2.2e-06
1
2.3e-06
2.2e-06
2.2e-06
0
2.3e-06
2.2e-06
2.2e-06
0
2.3e-06
2.2e-06
2.3e-06
2.2e-06
2.3e-06
2.2e-06
2.3e-06
2.2e-06
2.3e-06
2.2e-06
2.3e-06
2.2e-06
2.3e-06
2.3e-06
0
2.2e-06
2.3e-06
2.3e-06
1
2.2e-06
2.3e-06
2.3e-06
1
2.2e-06
2.3e-06
2.3e-06
16
2.4e-06
2.3e-06
2.3e-06
1
2.4e-06
2.3e-06
2.3e-06
1
2.4e-06
2.3e-06
2.4e-06
2.3e-06
2.3e-06
0
2.4e-06
2.3e-06
2.4e-06
2.3e-06
2.4e-06
2.3e-06
2.4e-06
2.3e-06
2.4e-06
2.4e-06
0
2.3e-06
2.4e-06
2.4e-06
0
2.3e-06
2.4e-06
2.4e-06
0
2.3e-06
2.4e-06
2.4e-06
2
2.3e-06
2.4e-06
2.4e-06
14
2.5e-06
2.4e-06
2.4e-06
2
2.5e-06
2.4e-06
2.4e-06
1
2.5e-06
2.4e-06
2.5e-06
2.4e-06
2.4e-06
0
2.5e-06
2.4e-06
2.5e-06
2.4e-06
2.5e-06
2.4e-06
2.5e-06
2.4e-06
2.5e-06
2.5e-06
0
2.4e-06
2.5e-06
2.4e-06
2.5e-06
2.5e-06
1
2.4e-06
2.5e-06
2.5e-06
1
2.4e-06
2.5e-06
2.5e-06
16
2.6e-06
2.5e-06
2.5e-06
2
2.6e-06
2.5e-06
2.5e-06
0
2.6e-06
2.5e-06
2.5e-06
0
2.6e-06
2.5e-06
2.6e-06
2.5e-06
2.5e-06
0
2.6e-06
2.5e-06
2.6e-06
2.6e-06
0
2.5e-06
2.6e-06
2.5e-06
2.6e-06
2.6e-06
0
2.5e-06
2.6e-06
2.6e-06
0
2.5e-06
2.6e-06
2.6e-06
1
2.5e-06
2.6e-06
2.6e-06
3
2.5e-06
2.6e-06
2.6e-06
7
2.7e-06
2.6e-06
2.6e-06
3
2.7e-06
2.6e-06
2.6e-06
1
2.7e-06
2.6e-06
2.6e-06
0
2.7e-06
2.6e-06
2.6e-06
0
2.7e-06
2.6e-06
2.7e-06
2.6e-06
2.7e-06
2.6e-06
2.7e-06
2.6e-06
2.7e-06
2.6e-06
2.7e-06
2.6e-06
2.7e-06
2.7e-06
0
2.6e-06
2.7e-06
2.7e-06
0
2.6e-06
2.7e-06
2.7e-06
2
2.6e-06
2.7e-06
2.7e-06
15
2.8e-06
2.7e-06
2.7e-06
2
2.8e-06
2.7e-06
2.7e-06
0
2.8e-06
2.7e-06
2.7e-06
0
2.8e-06
2.7e-06
2.7e-06
0
2.8e-06
2.7e-06
2.8e-06
2.7e-06
2.8e-06
2.7e-06
2.8e-06
2.8e-06
0
2.7e-06
2.8e-06
2.7e-06
2.8e-06
2.8e-06
0
2.7e-06
2.8e-06
2.8e-06
1
2.7e-06
2.8e-06
2.8e-06
2
2.7e-06
2.8e-06
2.8e-06
12
2.9e-06
2.8e-06
2.8e-06
2
2.9e-06
2.8e-06
2.8e-06
1
2.9e-06
2.8e-06
2.8e-06
0
2.9e-06
2.8e-06
2.9e-06
2.8e-06
2.9e-06
2.8e-06
2.8e-06
0
2.9e-06
2.9e-06
0
2.8e-06
2.9e-06
2.8e-06
2.9e-06
2.8e-06
2.9e-06
2.9e-06
0
2.8e-06
2.9e-06
2.9e-06
1
2.8e-06
2.9e-06
2.9e-06
2
2.8e-06
2.9e-06
2.9e-06
12
3e-06
2.9e-06
2.9e-06
2
3e-06
2.9e-06
2.9e-06
1
3e-06
2.9e-06
2.9e-06
0
3e-06
2.9e-06
3e-06
2.9e-06
2.9e-06
0
3e-06
2.9e-06
3e-06
2.9e-06
3e-06
3e-06
0
2.9e-06
3e-06
2.9e-06
3e-06
3e-06
0
2.9e-06
3e-06
3e-06
0
2.9e-06
3e-06
3e-06
2
2.9e-06
3e-06
3e-06
15
3.1e-06
3e-06
3e-06
1
3.1e-06
3e-06
3e-06
1
3.1e-06
3e-06
3e-06
0
3.1e-06
3e-06
3.1e-06
3e-06
3.1e-06
3e-06
3.1e-06
3e-06
3.1e-06
3e-06
3.1e-06
3e-06
3.1e-06
3.1e-06
0
3e-06
3.1e-06
3.1e-06
0
3e-06
3.1e-06
3.1e-06
1
3e-06
3.1e-06
3.1e-06
4
3e-06
3.1e-06
3.1e-06
6
3.2e-06
3.1e-06
3.1e-06
3
3.2e-06
3.1e-06
3.1e-06
1
3.2e-06
3.1e-06
3.1e-06
0
3.2e-06
3.1e-06
3.1e-06
0
3.2e-06
3.1e-06
3.2e-06
3.1e-06
3.1e-06
0
3.2e-06
3.2e-06
0
3.1e-06
3.2e-06
3.1e-06
3.2e-06
3.1e-06
3.2e-06
3.2e-06
0
3.1e-06
3.2e-06
3.2e-06
0
3.1e-06
3.2e-06
3.2e-06
2
3.1e-06
3.2e-06
3.2e-06
16
3.3e-06
3.2e-06
3.2e-06
1
3.3e-06
3.2e-06
3.2e-06
1
3.3e-06
3.2e-06
3.3e-06
3.2e-06
3.2e-06
0
3.3e-06
3.2e-06
3.3e-06
3.2e-06
3.3e-06
3.2e-06
3.3e-06
3.2e-06
3.3e-06
3.3e-06
0
3.2e-06
3.3e-06
3.2e-06
3.3e-06
3.3e-06
1
3.2e-06
3.3e-06
3.3e-06
1
3.2e-06
3.3e-06
3.3e-06
16
3.4e-06
3.3e-06
3.3e-06
1
3.4e-06
3.3e-06
3.3e-06
1
3.4e-06
3.3e-06
3.4e-06
3.3e-06
3.3e-06
0
3.4e-06
3.3e-06
3.4e-06
3.3e-06
3.4e-06
3.3e-06
3.4e-06
3.3e-06
3.4e-06
3.3e-06
3.4e-06
3.4e-06
0
3.3e-06
3.4e-06
3.4e-06
0
3.3e-06
3.4e-06
3.4e-06
2
3.3e-06
3.4e-06
3.4e-06
17
3.5e-06
3.4e-06
3.4e-06
1
3.5e-06
3.4e-06
3.4e-06
0
3.5e-06
3.4e-06
3.4e-06
0
3.5e-06
3.4e-06
3.4e-06
0
3.5e-06
3.4e-06
3.5e-06
3.4e-06
3.5e-06
3.4e-06
3.5e-06
3.5e-06
0
3.4e-06
3.5e-06
3.4e-06
3.5e-06
3.5e-06
0
3.4e-06
3.5e-06
3.5e-06
1
3.4e-06
3.5e-06
3.5e-06
2
3.4e-06
3.5e-06
3.5e-06
11
3.6e-06
3.5e-06
3.5e-06
2
3.6e-06
3.5e-06
3.5e-06
1
3.6e-06
3.5e-06
3.5e-06
0
3.6e-06
3.5e-06
3.5e-06
0
3.6e-06
3.5e-06
3.6e-06
3.5e-06
3.6e-06
3.5e-06
3.6e-06
3.5e-06
3.6e-06
3.6e-06
0
3.5e-06
3.6e-06
3.5e-06
3.6e-06
3.6e-06
0
3.5e-06
3.6e-06
3.6e-06
1
3.5e-06
3.6e-06
3.6e-06
4
3.5e-06
3.6e-06
3.6e-06
5
3.7e-06
3.6e-06
3.6e-06
4
3.7e-06
3.6e-06
3.6e-06
1
3.7e-06
3.6e-06
3.6e-06
1
3.7e-06
3.6e-06
3.7e-06
3.6e-06
3.6e-06
0
3.7e-06
3.6e-06
3.7e-06
3.6e-06
3.7e-06
3.6e-06
3.7e-06
3.7e-06
0
3.6e-06
3.7e-06
3.6e-06
3.7e-06
3.7e-06
1
3.6e-06
3.7e-06
3.7e-06
1
3.6e-06
3.7e-06
3.7e-06
4
3.6e-06
3.7e-06
3.7e-06
5
3.8e-06
3.7e-06
3.7e-06
4
3.8e-06
3.7e-06
3.7e-06
1
3.8e-06
3.7e-06
3.7e-06
0
3.8e-06
3.7e-06
3.7e-06
0
3.8e-06
3.7e-06
3.8e-06
3.7e-06
3.8e-06
3.7e-06
3.8e-06
3.7e-06
3.8e-06
3.7e-06
3.8e-06
3.8e-06
0
3.7e-06
3.8e-06
3.8e-06
0
3.7e-06
3.8e-06
3.8e-06
1
3.7e-06
3.8e-06
3.8e-06
2
3.7e-06
3.8e-06
3.8e-06
11
3.9e-06
3.8e-06
3.8e-06
2
3.9e-06
3.8e-06
3.8e-06
1
3.9e-06
3.8e-06
3.8e-06
0
3.9e-06
3.8e-06
3.8e-06
0
3.9e-06
3.8e-06
3.9e-06
3.8e-06
3.9e-06
3.8e-06
3.9e-06
3.8e-06
3.9e-06
3.9e-06
0
3.8e-06
3.9e-06
3.8e-06
3.9e-06
3.9e-06
1
3.8e-06
3.9e-06
3.9e-06
1
3.8e-06
3.9e-06
3.9e-06
4
3.8e-06
3.9e-06
3.9e-06
3
4e-06
3.9e-06
3.9e-06
5
4e-06
3.9e-06
3.9e-06
1
4e-06
3.9e-06
3.9e-06
0
4e-06
3.9e-06
3.9e-06
0
4e-06
3.9e-06
4e-06
3.9e-06
4e-06
3.9e-06
4e-06
3.9e-06
4e-06
3.9e-06
4e-06
3.9e-06
4e-06
4e-06
0
3.9e-06
4e-06
4e-06
0
3.9e-06
4e-06
4e-06
1
3.9e-06
4e-06
4e-06
7
3.9e-06
4.1e-06
4e-06
4e-06
7
4.1e-06
4e-06
4e-06
1
4.1e-06
4e-06
4e-06
0
4.1e-06
4e-06
4e-06
0
4.1e-06
4e-06
4.1e-06
4e-06
4e-06
0
4.1e-06
4e-06
4.1e-06
4e-06
4.1e-06
4.1e-06
0
4e-06
4.1e-06
4e-06
4.1e-06
4.1e-06
1
4e-06
4.1e-06
4.1e-06
0
4e-06
4.1e-06
4.1e-06
4
4e-06
4.1e-06
4.1e-06
7
4.2e-06
4.1e-06
4.1e-06
3
4.2e-06
4.1e-06
4.1e-06
1
4.2e-06
4.1e-06
4.1e-06
0
4.2e-06
4.1e-06
4.1e-06
0
4.2e-06
4.1e-06
4.2e-06
4.1e-06
4.1e-06
0
4.2e-06
4.1e-06
4.2e-06
4.2e-06
0
4.1e-06
4.2e-06
4.1e-06
4.2e-06
4.2e-06
0
4.1e-06
4.2e-06
4.2e-06
0
4.1e-06
4.2e-06
4.2e-06
2
4.1e-06
4.2e-06
4.2e-06
16
4.3e-06
4.2e-06
4.2e-06
1
4.3e-06
4.2e-06
4.2e-06
1
4.3e-06
4.2e-06
4.3e-06
4.2e-06
4.2e-06
0
4.3e-06
4.2e-06
4.3e-06
4.2e-06
4.3e-06
4.2e-06
4.3e-06
4.2e-06
4.3e-06
4.3e-06
0
4.2e-06
4.3e-06
4.2e-06
4.3e-06
4.3e-06
1
4.2e-06
4.3e-06
4.3e-06
1
4.2e-06
4.3e-06
4.3e-06
16
4.4e-06
4.3e-06
4.3e-06
2
4.4e-06
4.3e-06
4.3e-06
0
4.4e-06
4.3e-06
4.3e-06
0
4.4e-06
4.3e-06
4.4e-06
4.3e-06
4.4e-06
4.3e-06
4.4e-06
4.3e-06
4.4e-06
4.3e-06
4.4e-06
4.3e-06
4.4e-06
4.4e-06
0
4.3e-06
4.4e-06
4.4e-06
0
4.3e-06
4.4e-06
4.4e-06
1
4.3e-06
4.4e-06
4.4e-06
3
4.3e-06
4.4e-06
4.4e-06
7
4.5e-06
4.4e-06
4.4e-06
3
4.5e-06
4.4e-06
4.4e-06
1
4.5e-06
4.4e-06
4.4e-06
0
4.5e-06
4.4e-06
4.4e-06
0
4.5e-06
4.4e-06
4.5e-06
4.4e-06
4.4e-06
0
4.5e-06
4.4e-06
4.5e-06
4.5e-06
0
4.4e-06
4.5e-06
4.4e-06
4.5e-06
4.5e-06
0
4.4e-06
4.5e-06
4.5e-06
0
4.4e-06
4.5e-06
4.5e-06
1
4.4e-06
4.5e-06
4.5e-06
17
4.6e-06
4.5e-06
4.5e-06
2
4.6e-06
4.5e-06
4.5e-06
0
4.6e-06
4.5e-06
4.5e-06
0
4.6e-06
4.5e-06
4.6e-06
4.5e-06
4.6e-06
4.5e-06
4.6e-06
4.5e-06
4.6e-06
4.5e-06
4.6e-06
4.5e-06
4.6e-06
4.6e-06
0
4.5e-06
4.6e-06
4.6e-06
0
4.5e-06
4.6e-06
4.6e-06
1
4.5e-06
4.6e-06
4.6e-06
4
4.5e-06
4.6e-06
4.6e-06
4
4.7e-06
4.6e-06
4.6e-06
5
4.7e-06
4.6e-06
4.6e-06
1
4.7e-06
4.6e-06
4.6e-06
0
4.7e-06
4.6e-06
4.6e-06
0
4.7e-06
4.6e-06
4.7e-06
4.6e-06
4.7e-06
4.6e-06
4.7e-06
4.6e-06
4.7e-06
4.6e-06
4.7e-06
4.7e-06
0
4.6e-06
4.7e-06
4.7e-06
0
4.6e-06
4.7e-06
4.7e-06
0
4.6e-06
4.7e-06
4.7e-06
2
4.6e-06
4.7e-06
4.7e-06
14
4.8e-06
4.7e-06
4.7e-06
2
4.8e-06
4.7e-06
4.7e-06
0
4.8e-06
4.7e-06
4.7e-06
0
4.8e-06
4.7e-06
4.8e-06
4.7e-06
4.7e-06
0
4.8e-06
4.7e-06
4.8e-06
4.7e-06
4.8e-06
4.8e-06
0
4.7e-06
4.8e-06
4.7e-06
4.8e-06
4.8e-06
0
4.7e-06
4.8e-06
4.8e-06
0
4.7e-06
4.8e-06
4.8e-06
2
4.7e-06
4.8e-06
4.8e-06
14
4.9e-06
4.8e-06
4.8e-06
2
4.9e-06
4.8e-06
4.8e-06
1
4.9e-06
4.8e-06
4.9e-06
4.8e-06
4.8e-06
0
4.9e-06
4.8e-06
4.9e-06
4.8e-06
4.9e-06
4.8e-06
4.9e-06
4.8e-06
4.9e-06
4.8e-06
4.9e-06
4.9e-06
0
4.8e-06
4.9e-06
4.9e-06
0
4.8e-06
4.9e-06
4.9e-06
1
4.8e-06
4.9e-06
4.9e-06
4
4.8e-06
4.9e-06
4.9e-06
5
5e-06
4.9e-06
4.9e-06
4
5e-06
4.9e-06
4.9e-06
1
5e-06
4.9e-06
4.9e-06
0
5e-06
4.9e-06
4.9e-06
0
5e-06
4.9e-06
5e-06
4.9e-06
4.9e-06
0
5e-06
4.9e-06
5e-06
5e-06
0
4.9e-06
5e-06
4.9e-06
5e-06
5e-06
0
4.9e-06
5e-06
5e-06
0
4.9e-06
5e-06
5e-06
1
4.9e-06
5e-06
5e-06
4
4.9e-06
5e-06
5e-06
4
5.1e-06
5e-06
5e-06
5
5.1e-06
5e-06
5e-06
1
5.1e-06
5e-06
5e-06
0
5.1e-06
5e-06
5.1e-06
5e-06
5e-06
0
5.1e-06
5e-06
5.1e-06
5e-06
5.1e-06
5e-06
5.1e-06
5e-06
5.1e-06
5.1e-06
0
5e-06
5.1e-06
5.1e-06
0
5e-06
5.1e-06
5.1e-06
0
5e-06
5.1e-06
5.1e-06
3
5e-06
5.1e-06
5.1e-06
12
5.2e-06
5.1e-06
5.1e-06
2
5.2e-06
5.1e-06
5.1e-06
1
5.2e-06
5.1e-06
5.1e-06
0
5.2e-06
5.1e-06
5.2e-06
5.1e-06
5.2e-06
5.1e-06
5.2e-06
5.1e-06
5.2e-06
5.1e-06
5.2e-06
5.1e-06
5.2e-06
5.2e-06
0
5.1e-06
5.2e-06
5.1e-06
5.2e-06
5.2e-06
1
5.1e-06
5.2e-06
5.2e-06
2
5.1e-06
5.2e-06
5.2e-06
12
5.3e-06
5.2e-06
5.2e-06
2
5.3e-06
5.2e-06
5.2e-06
1
5.3e-06
5.2e-06
5.2e-06
0
5.3e-06
5.2e-06
5.2e-06
0
5.3e-06
5.2e-06
5.3e-06
5.2e-06
5.3e-06
5.2e-06
5.3e-06
5.2e-06
5.3e-06
5.3e-06
0
5.2e-06
5.3e-06
5.2e-06
5.3e-06
5.3e-06
1
5.2e-06
5.3e-06
5.3e-06
1
5.2e-06
5.3e-06
5.3e-06
6
5.2e-06
5.3e-06
5.4e-06
5.3e-06
5.3e-06
7
5.4e-06
5.3e-06
5.3e-06
1
5.4e-06
5.3e-06
5.3e-06
0
5.4e-06
5.3e-06
5.3e-06
0
5.4e-06
5.3e-06
5.4e-06
5.3e-06
5.4e-06
5.3e-06
5.4e-06
5.3e-06
5.4e-06
5.3e-06
5.4e-06
5.3e-06
5.4e-06
5.4e-06
0
5.3e-06
5.4e-06
5.4e-06
0
5.3e-06
5.4e-06
5.4e-06
1
5.3e-06
5.4e-06
5.4e-06
5
5.3e-06
5.4e-06
5.4e-06
2
5.5e-06
5.4e-06
5.4e-06
5
5.5e-06
5.4e-06
5.4e-06
2
5.5e-06
5.4e-06
5.4e-06
0
5.5e-06
5.4e-06
5.5e-06
5.4e-06
5.4e-06
0
5.5e-06
5.4e-06
5.5e-06
5.4e-06
5.5e-06
5.4e-06
5.5e-06
5.4e-06
5.5e-06
5.5e-06
0
5.4e-06
5.5e-06
5.5e-06
0
5.4e-06
5.5e-06
5.5e-06
0
5.4e-06
5.5e-06
5.5e-06
2
5.4e-06
5.5e-06
5.5e-06
14
5.6e-06
5.5e-06
5.5e-06
2
5.6e-06
5.5e-06
5.5e-06
0
5.6e-06
5.5e-06
5.5e-06
0
5.6e-06
5.5e-06
5.5e-06
0
5.6e-06
5.5e-06
5.6e-06
5.5e-06
5.6e-06
5.5e-06
5.6e-06
5.5e-06
5.6e-06
5.6e-06
0
5.5e-06
5.6e-06
5.6e-06
0
5.5e-06
5.6e-06
5.6e-06
0
5.5e-06
5.6e-06
5.6e-06
1
5.5e-06
5.6e-06
5.6e-06
17
5.7e-06
5.6e-06
5.6e-06
1
5.7e-06
5.6e-06
5.6e-06
1
5.7e-06
5.6e-06
5.7e-06
5.6e-06
5.6e-06
0
5.7e-06
5.6e-06
5.7e-06
5.6e-06
5.7e-06
5.6e-06
5.7e-06
5.6e-06
5.7e-06
5.7e-06
0
5.6e-06
5.7e-06
5.7e-06
0
5.6e-06
5.7e-06
5.7e-06
0
5.6e-06
5.7e-06
5.7e-06
2
5.6e-06
5.7e-06
5.7e-06
15
5.8e-06
5.7e-06
5.7e-06
1
5.8e-06
5.7e-06
5.7e-06
1
5.8e-06
5.7e-06
5.7e-06
0
5.8e-06
5.7e-06
5.8e-06
5.7e-06
5.8e-06
5.7e-06
5.8e-06
5.7e-06
5.8e-06
5.7e-06
5.8e-06
5.7e-06
5.8e-06
5.8e-06
0
5.7e-06
5.8e-06
5.8e-06
0
5.7e-06
5.8e-06
5.8e-06
1
5.7e-06
5.8e-06
5.8e-06
3
5.7e-06
5.8e-06
5.8e-06
8
5.9e-06
5.8e-06
5.8e-06
3
5.9e-06
5.8e-06
5.8e-06
1
5.9e-06
5.8e-06
5.8e-06
0
5.9e-06
5.8e-06
5.8e-06
0
5.9e-06
5.8e-06
5.9e-06
5.8e-06
5.9e-06
5.8e-06
5.9e-06
5.8e-06
5.9e-06
5.8e-06
5.9e-06
5.9e-06
0
5.8e-06
5.9e-06
5.9e-06
0
5.8e-06
5.9e-06
5.9e-06
1
5.8e-06
5.9e-06
5.9e-06
2
5.8e-06
5.9e-06
5.9e-06
11
6e-06
5.9e-06
5.9e-06
2
6e-06
5.9e-06
5.9e-06
1
6e-06
5.9e-06
5.9e-06
0
6e-06
5.9e-06
5.9e-06
0
6e-06
5.9e-06
6e-06
5.9e-06
6e-06
5.9e-06
6e-06
5.9e-06
6e-06
5.9e-06
6e-06
6e-06
0
5.9e-06
6e-06
6e-06
0
5.9e-06
6e-06
6e-06
1
5.9e-06
6e-06
6e-06
3
5.9e-06
6e-06
6e-06
8
6.1e-06
6e-06
6e-06
3
6.1e-06
6e-06
6e-06
1
6.1e-06
6e-06
6e-06
0
6.1e-06
6e-06
6e-06
0
6.1e-06
6e-06
6.1e-06
6e-06
6.1e-06
6e-06
6.1e-06
6e-06
6.1e-06
6e-06
6.1e-06
6e-06
6.1e-06
6.1e-06
0
6e-06
6.1e-06
6.1e-06
0
6e-06
6.1e-06
6.1e-06
2
6e-06
6.1e-06
6.1e-06
16
6.2e-06
6.1e-06
6.1e-06
1
6.2e-06
6.1e-06
6.1e-06
1
6.2e-06
6.1e-06
6.1e-06
0
6.2e-06
6.1e-06
6.2e-06
6.1e-06
6.2e-06
6.1e-06
6.2e-06
6.1e-06
6.2e-06
6.1e-06
6.2e-06
6.1e-06
6.2e-06
6.2e-06
0
6.1e-06
6.2e-06
6.2e-06
0
6.1e-06
6.2e-06
6.2e-06
1
6.1e-06
6.2e-06
6.2e-06
4
6.1e-06
6.2e-06
6.2e-06
6
6.3e-06
6.2e-06
6.2e-06
3
6.3e-06
6.2e-06
6.2e-06
1
6.3e-06
6.2e-06
6.2e-06
1
6.3e-06
6.2e-06
6.3e-06
6.2e-06
6.2e-06
0
6.3e-06
6.2e-06
6.3e-06
6.2e-06
6.3e-06
6.2e-06
6.3e-06
6.3e-06
0
6.2e-06
6.3e-06
6.2e-06
6.3e-06
6.3e-06
0
6.2e-06
6.3e-06
6.3e-06
1
6.2e-06
6.3e-06
6.3e-06
4
6.2e-06
6.3e-06
6.3e-06
7
6.4e-06
6.3e-06
6.3e-06
4
6.4e-06
6.3e-06
6.3e-06
0
6.4e-06
6.3e-06
6.3e-06
1
6.4e-06
6.3e-06
6.4e-06
6.3e-06
6.3e-06
0
6.4e-06
6.3e-06
6.4e-06
6.3e-06
6.4e-06
6.3e-06
6.4e-06
6.4e-06
0
6.3e-06
6.4e-06
6.4e-06
0
6.3e-06
6.4e-06
6.4e-06
0
6.3e-06
6.4e-06
6.4e-06
1
6.3e-06
6.4e-06
6.4e-06
4
6.3e-06
6.4e-06
6.4e-06
5
6.5e-06
6.4e-06
6.4e-06
4
6.5e-06
6.4e-06
6.4e-06
1
6.5e-06
6.4e-06
6.4e-06
0
6.5e-06
6.4e-06
6.4e-06
0
6.5e-06
6.4e-06
6.5e-06
6.4e-06
6.5e-06
6.4e-06
6.5e-06
6.4e-06
6.5e-06
6.4e-06
6.5e-06
6.4e-06
6.5e-06
6.5e-06
0
6.4e-06
6.5e-06
6.5e-06
1
6.4e-06
6.5e-06
6.5e-06
1
6.4e-06
6.5e-06
6.5e-06
16
6.6e-06
6.5e-06
6.5e-06
2
6.6e-06
6.5e-06
6.5e-06
0
6.6e-06
6.5e-06
6.5e-06
0
6.6e-06
6.5e-06
6.6e-06
6.5e-06
6.5e-06
0
6.6e-06
6.5e-06
6.6e-06
6.5e-06
6.6e-06
6.6e-06
0
6.5e-06
6.6e-06
6.5e-06
6.6e-06
6.6e-06
0
6.5e-06
6.6e-06
6.6e-06
1
6.5e-06
6.6e-06
6.6e-06
3
6.5e-06
6.6e-06
6.6e-06
10
6.7e-06
6.6e-06
6.6e-06
3
6.7e-06
6.6e-06
6.6e-06
1
6.7e-06
6.6e-06
6.6e-06
0
6.7e-06
6.6e-06
6.7e-06
6.6e-06
6.6e-06
0
6.7e-06
6.6e-06
6.7e-06
6.6e-06
6.7e-06
6.7e-06
0
6.6e-06
6.7e-06
6.6e-06
6.7e-06
6.7e-06
0
6.6e-06
6.7e-06
6.7e-06
0
6.6e-06
6.7e-06
6.7e-06
2
6.6e-06
6.7e-06
6.7e-06
16
6.8e-06
6.7e-06
6.7e-06
2
6.8e-06
6.7e-06
6.7e-06
0
6.8e-06
6.7e-06
6.7e-06
0
6.8e-06
6.7e-06
6.8e-06
6.7e-06
6.8e-06
6.7e-06
6.8e-06
6.7e-06
6.8e-06
6.7e-06
6.8e-06
6.7e-06
6.8e-06
6.8e-06
0
6.7e-06
6.8e-06
6.8e-06
0
6.7e-06
6.8e-06
6.8e-06
1
6.7e-06
6.8e-06
6.8e-06
3
6.7e-06
6.8e-06
6.8e-06
8
6.9e-06
6.8e-06
6.8e-06
3
6.9e-06
6.8e-06
