# Pulseq sequence file
# Created by MATLAB mr toolbox

# Created for Pulseq-CEST
# https://pulseq-cest.github.io/
# Created by: Kai Herz
# Created at: 07-Jul-2022 11:13:03

[VERSION]
major 1
minor 3
revision 1

[DEFINITIONS]
B0 3 
B1rms 2 2 1.7 1.5 1.2 1.2 3 0.5 3 1 2.2 3.2 1.5 0.7 1.5 2.2 2.5 1.2 3 0.2 1.5 2.5 0.7 4 3.2 3.5 1.5 2.7 0.7 0.5 
DCsat 0.5 
Trec 1 1 1 1 1 1 1 1 1 1 1 1 1 1 1 1 1 1 1 1 1 1 1 1 1 1 1 1 1 1 
Tsat 2.5 2.5 2.5 2.5 2.5 2.5 2.5 2.5 2.5 2.5 2.5 2.5 2.5 2.5 2.5 2.5 2.5 2.5 2.5 2.5 2.5 2.5 2.5 2.5 2.5 2.5 2.5 2.5 2.5 2.5 
n_pulses 13 
num_meas 30 
offsets_ppm 8 6 6 10 10 10 8 6 8 14 14 10 6 10 8 6 8 10 14 14 6 8 14 6 14 14 14 8 10 8 
seq_id_string MRF_CEST_MT_3T_003_13SL_DC50_2500ms 
td 0.1 
tp 0.1 

# Format of blocks:
#  #  D RF  GX  GY  GZ ADC EXT
[BLOCKS]
   1  1  0   0   0   0  0  0
   2  0  1   0   0   0  0  0
   3  0  2   0   0   0  0  0
   4  0  3   0   0   0  0  0
   5  2  0   0   0   0  0  0
   6  0  4   0   0   0  0  0
   7  0  5   0   0   0  0  0
   8  0  6   0   0   0  0  0
   9  2  0   0   0   0  0  0
  10  0  7   0   0   0  0  0
  11  0  8   0   0   0  0  0
  12  0  9   0   0   0  0  0
  13  2  0   0   0   0  0  0
  14  0 10   0   0   0  0  0
  15  0 11   0   0   0  0  0
  16  0 12   0   0   0  0  0
  17  2  0   0   0   0  0  0
  18  0 13   0   0   0  0  0
  19  0 14   0   0   0  0  0
  20  0 15   0   0   0  0  0
  21  2  0   0   0   0  0  0
  22  0 16   0   0   0  0  0
  23  0 17   0   0   0  0  0
  24  0 18   0   0   0  0  0
  25  2  0   0   0   0  0  0
  26  0 19   0   0   0  0  0
  27  0 20   0   0   0  0  0
  28  0 21   0   0   0  0  0
  29  2  0   0   0   0  0  0
  30  0 22   0   0   0  0  0
  31  0 23   0   0   0  0  0
  32  0 24   0   0   0  0  0
  33  2  0   0   0   0  0  0
  34  0 25   0   0   0  0  0
  35  0 26   0   0   0  0  0
  36  0 27   0   0   0  0  0
  37  2  0   0   0   0  0  0
  38  0 28   0   0   0  0  0
  39  0 29   0   0   0  0  0
  40  0 30   0   0   0  0  0
  41  2  0   0   0   0  0  0
  42  0 31   0   0   0  0  0
  43  0 32   0   0   0  0  0
  44  0 33   0   0   0  0  0
  45  2  0   0   0   0  0  0
  46  0 34   0   0   0  0  0
  47  0 35   0   0   0  0  0
  48  0 36   0   0   0  0  0
  49  2  0   0   0   0  0  0
  50  0 37   0   0   0  0  0
  51  0 38   0   0   0  0  0
  52  0 39   0   0   0  0  0
  53  0  0   1   1   1  0  0
  54  0  0   0   0   0  1  0
  55  1  0   0   0   0  0  0
  56  0 40   0   0   0  0  0
  57  0 41   0   0   0  0  0
  58  0 42   0   0   0  0  0
  59  2  0   0   0   0  0  0
  60  0 43   0   0   0  0  0
  61  0 44   0   0   0  0  0
  62  0 45   0   0   0  0  0
  63  2  0   0   0   0  0  0
  64  0 46   0   0   0  0  0
  65  0 47   0   0   0  0  0
  66  0 48   0   0   0  0  0
  67  2  0   0   0   0  0  0
  68  0 49   0   0   0  0  0
  69  0 50   0   0   0  0  0
  70  0 51   0   0   0  0  0
  71  2  0   0   0   0  0  0
  72  0 52   0   0   0  0  0
  73  0 53   0   0   0  0  0
  74  0 54   0   0   0  0  0
  75  2  0   0   0   0  0  0
  76  0 55   0   0   0  0  0
  77  0 56   0   0   0  0  0
  78  0 57   0   0   0  0  0
  79  2  0   0   0   0  0  0
  80  0 58   0   0   0  0  0
  81  0 59   0   0   0  0  0
  82  0 60   0   0   0  0  0
  83  2  0   0   0   0  0  0
  84  0 61   0   0   0  0  0
  85  0 62   0   0   0  0  0
  86  0 63   0   0   0  0  0
  87  2  0   0   0   0  0  0
  88  0 64   0   0   0  0  0
  89  0 65   0   0   0  0  0
  90  0 66   0   0   0  0  0
  91  2  0   0   0   0  0  0
  92  0 67   0   0   0  0  0
  93  0 68   0   0   0  0  0
  94  0 69   0   0   0  0  0
  95  2  0   0   0   0  0  0
  96  0 70   0   0   0  0  0
  97  0 71   0   0   0  0  0
  98  0 72   0   0   0  0  0
  99  2  0   0   0   0  0  0
 100  0 73   0   0   0  0  0
 101  0 74   0   0   0  0  0
 102  0 75   0   0   0  0  0
 103  2  0   0   0   0  0  0
 104  0 76   0   0   0  0  0
 105  0 77   0   0   0  0  0
 106  0 78   0   0   0  0  0
 107  0  0   1   1   1  0  0
 108  0  0   0   0   0  1  0
 109  1  0   0   0   0  0  0
 110  0 79   0   0   0  0  0
 111  0 80   0   0   0  0  0
 112  0 81   0   0   0  0  0
 113  2  0   0   0   0  0  0
 114  0 82   0   0   0  0  0
 115  0 83   0   0   0  0  0
 116  0 84   0   0   0  0  0
 117  2  0   0   0   0  0  0
 118  0 85   0   0   0  0  0
 119  0 86   0   0   0  0  0
 120  0 87   0   0   0  0  0
 121  2  0   0   0   0  0  0
 122  0 88   0   0   0  0  0
 123  0 89   0   0   0  0  0
 124  0 90   0   0   0  0  0
 125  2  0   0   0   0  0  0
 126  0 91   0   0   0  0  0
 127  0 92   0   0   0  0  0
 128  0 93   0   0   0  0  0
 129  2  0   0   0   0  0  0
 130  0 94   0   0   0  0  0
 131  0 95   0   0   0  0  0
 132  0 96   0   0   0  0  0
 133  2  0   0   0   0  0  0
 134  0 97   0   0   0  0  0
 135  0 98   0   0   0  0  0
 136  0 99   0   0   0  0  0
 137  2  0   0   0   0  0  0
 138  0 100   0   0   0  0  0
 139  0 101   0   0   0  0  0
 140  0 102   0   0   0  0  0
 141  2  0   0   0   0  0  0
 142  0 103   0   0   0  0  0
 143  0 104   0   0   0  0  0
 144  0 105   0   0   0  0  0
 145  2  0   0   0   0  0  0
 146  0 106   0   0   0  0  0
 147  0 107   0   0   0  0  0
 148  0 108   0   0   0  0  0
 149  2  0   0   0   0  0  0
 150  0 109   0   0   0  0  0
 151  0 110   0   0   0  0  0
 152  0 111   0   0   0  0  0
 153  2  0   0   0   0  0  0
 154  0 112   0   0   0  0  0
 155  0 113   0   0   0  0  0
 156  0 114   0   0   0  0  0
 157  2  0   0   0   0  0  0
 158  0 115   0   0   0  0  0
 159  0 116   0   0   0  0  0
 160  0 117   0   0   0  0  0
 161  0  0   1   1   1  0  0
 162  0  0   0   0   0  1  0
 163  1  0   0   0   0  0  0
 164  0 118   0   0   0  0  0
 165  0 119   0   0   0  0  0
 166  0 120   0   0   0  0  0
 167  2  0   0   0   0  0  0
 168  0 121   0   0   0  0  0
 169  0 122   0   0   0  0  0
 170  0 123   0   0   0  0  0
 171  2  0   0   0   0  0  0
 172  0 124   0   0   0  0  0
 173  0 125   0   0   0  0  0
 174  0 126   0   0   0  0  0
 175  2  0   0   0   0  0  0
 176  0 127   0   0   0  0  0
 177  0 128   0   0   0  0  0
 178  0 129   0   0   0  0  0
 179  2  0   0   0   0  0  0
 180  0 130   0   0   0  0  0
 181  0 131   0   0   0  0  0
 182  0 132   0   0   0  0  0
 183  2  0   0   0   0  0  0
 184  0 133   0   0   0  0  0
 185  0 134   0   0   0  0  0
 186  0 135   0   0   0  0  0
 187  2  0   0   0   0  0  0
 188  0 136   0   0   0  0  0
 189  0 137   0   0   0  0  0
 190  0 138   0   0   0  0  0
 191  2  0   0   0   0  0  0
 192  0 139   0   0   0  0  0
 193  0 140   0   0   0  0  0
 194  0 141   0   0   0  0  0
 195  2  0   0   0   0  0  0
 196  0 142   0   0   0  0  0
 197  0 143   0   0   0  0  0
 198  0 144   0   0   0  0  0
 199  2  0   0   0   0  0  0
 200  0 145   0   0   0  0  0
 201  0 146   0   0   0  0  0
 202  0 147   0   0   0  0  0
 203  2  0   0   0   0  0  0
 204  0 148   0   0   0  0  0
 205  0 149   0   0   0  0  0
 206  0 150   0   0   0  0  0
 207  2  0   0   0   0  0  0
 208  0 151   0   0   0  0  0
 209  0 152   0   0   0  0  0
 210  0 153   0   0   0  0  0
 211  2  0   0   0   0  0  0
 212  0 154   0   0   0  0  0
 213  0 155   0   0   0  0  0
 214  0 156   0   0   0  0  0
 215  0  0   1   1   1  0  0
 216  0  0   0   0   0  1  0
 217  1  0   0   0   0  0  0
 218  0 157   0   0   0  0  0
 219  0 158   0   0   0  0  0
 220  0 159   0   0   0  0  0
 221  2  0   0   0   0  0  0
 222  0 160   0   0   0  0  0
 223  0 161   0   0   0  0  0
 224  0 162   0   0   0  0  0
 225  2  0   0   0   0  0  0
 226  0 163   0   0   0  0  0
 227  0 164   0   0   0  0  0
 228  0 165   0   0   0  0  0
 229  2  0   0   0   0  0  0
 230  0 166   0   0   0  0  0
 231  0 167   0   0   0  0  0
 232  0 168   0   0   0  0  0
 233  2  0   0   0   0  0  0
 234  0 169   0   0   0  0  0
 235  0 170   0   0   0  0  0
 236  0 171   0   0   0  0  0
 237  2  0   0   0   0  0  0
 238  0 172   0   0   0  0  0
 239  0 173   0   0   0  0  0
 240  0 174   0   0   0  0  0
 241  2  0   0   0   0  0  0
 242  0 175   0   0   0  0  0
 243  0 176   0   0   0  0  0
 244  0 177   0   0   0  0  0
 245  2  0   0   0   0  0  0
 246  0 178   0   0   0  0  0
 247  0 179   0   0   0  0  0
 248  0 180   0   0   0  0  0
 249  2  0   0   0   0  0  0
 250  0 181   0   0   0  0  0
 251  0 182   0   0   0  0  0
 252  0 183   0   0   0  0  0
 253  2  0   0   0   0  0  0
 254  0 184   0   0   0  0  0
 255  0 185   0   0   0  0  0
 256  0 186   0   0   0  0  0
 257  2  0   0   0   0  0  0
 258  0 187   0   0   0  0  0
 259  0 188   0   0   0  0  0
 260  0 189   0   0   0  0  0
 261  2  0   0   0   0  0  0
 262  0 190   0   0   0  0  0
 263  0 191   0   0   0  0  0
 264  0 192   0   0   0  0  0
 265  2  0   0   0   0  0  0
 266  0 193   0   0   0  0  0
 267  0 194   0   0   0  0  0
 268  0 195   0   0   0  0  0
 269  0  0   1   1   1  0  0
 270  0  0   0   0   0  1  0
 271  1  0   0   0   0  0  0
 272  0 157   0   0   0  0  0
 273  0 158   0   0   0  0  0
 274  0 159   0   0   0  0  0
 275  2  0   0   0   0  0  0
 276  0 160   0   0   0  0  0
 277  0 161   0   0   0  0  0
 278  0 162   0   0   0  0  0
 279  2  0   0   0   0  0  0
 280  0 163   0   0   0  0  0
 281  0 164   0   0   0  0  0
 282  0 165   0   0   0  0  0
 283  2  0   0   0   0  0  0
 284  0 166   0   0   0  0  0
 285  0 167   0   0   0  0  0
 286  0 168   0   0   0  0  0
 287  2  0   0   0   0  0  0
 288  0 169   0   0   0  0  0
 289  0 170   0   0   0  0  0
 290  0 171   0   0   0  0  0
 291  2  0   0   0   0  0  0
 292  0 172   0   0   0  0  0
 293  0 173   0   0   0  0  0
 294  0 174   0   0   0  0  0
 295  2  0   0   0   0  0  0
 296  0 175   0   0   0  0  0
 297  0 176   0   0   0  0  0
 298  0 177   0   0   0  0  0
 299  2  0   0   0   0  0  0
 300  0 178   0   0   0  0  0
 301  0 179   0   0   0  0  0
 302  0 180   0   0   0  0  0
 303  2  0   0   0   0  0  0
 304  0 181   0   0   0  0  0
 305  0 182   0   0   0  0  0
 306  0 183   0   0   0  0  0
 307  2  0   0   0   0  0  0
 308  0 184   0   0   0  0  0
 309  0 185   0   0   0  0  0
 310  0 186   0   0   0  0  0
 311  2  0   0   0   0  0  0
 312  0 187   0   0   0  0  0
 313  0 188   0   0   0  0  0
[RF]
1      13.2323 1 2 200 0 -0.698132
2      85.1528 3 4 200 1021.83 0.872665
3      13.2323 1 2 200 0 3.59555
4      13.2323 1 2 200 0 0.174533
5      85.1528 3 4 200 1021.83 1.74533
6      13.2323 1 2 200 0 4.46821
7      13.2323 1 2 200 0 1.0472
8      85.1528 3 4 200 1021.83 2.61799
9      13.2323 1 2 200 0 5.34088
10      13.2323 1 2 200 0 1.91986
11      85.1528 3 4 200 1021.83 3.49066
12      13.2323 1 2 200 0 6.21354
13      13.2323 1 2 200 0 2.79253
14      85.1528 3 4 200 1021.83 4.36332
15      13.2323 1 2 200 0 7.0862
16      13.2323 1 2 200 0 3.66519
17      85.1528 3 4 200 1021.83 5.23599
18      13.2323 1 2 200 0 7.95887
19      13.2323 1 2 200 0 4.53786
20      85.1528 3 4 200 1021.83 6.10865
21      13.2323 1 2 200 0 8.83153
22      13.2323 1 2 200 0 5.41052
23      85.1528 3 4 200 1021.83 6.98132
24      13.2323 1 2 200 0 9.7042
25      13.2323 1 2 200 0 6.28319
26      85.1528 3 4 200 1021.83 7.85398
27      13.2323 1 2 200 0 10.5769
28      13.2323 1 2 200 0 7.15585
29      85.1528 3 4 200 1021.83 8.72665
30      13.2323 1 2 200 0 11.4495
31      13.2323 1 2 200 0 8.02851
32      85.1528 3 4 200 1021.83 9.59931
33      13.2323 1 2 200 0 12.3222
34      13.2323 1 2 200 0 8.90118
35      85.1528 3 4 200 1021.83 10.472
36      13.2323 1 2 200 0 13.1949
37      13.2323 1 2 200 0 9.77384
38      85.1528 3 4 200 1021.83 11.3446
39      13.2323 1 2 200 0 14.0675
40      17.6116 1 2 200 0 -0.698132
41      85.1528 3 4 200 766.375 0.872665
42      17.6116 1 2 200 0 6.44912
43      17.6116 1 2 200 0 0.174533
44      85.1528 3 4 200 766.375 1.74533
45      17.6116 1 2 200 0 7.32178
46      17.6116 1 2 200 0 1.0472
47      85.1528 3 4 200 766.375 2.61799
48      17.6116 1 2 200 0 8.19445
49      17.6116 1 2 200 0 1.91986
50      85.1528 3 4 200 766.375 3.49066
51      17.6116 1 2 200 0 9.06711
52      17.6116 1 2 200 0 2.79253
53      85.1528 3 4 200 766.375 4.36332
54      17.6116 1 2 200 0 9.93978
55      17.6116 1 2 200 0 3.66519
56      85.1528 3 4 200 766.375 5.23599
57      17.6116 1 2 200 0 10.8124
58      17.6116 1 2 200 0 4.53786
59      85.1528 3 4 200 766.375 6.10865
60      17.6116 1 2 200 0 11.6851
61      17.6116 1 2 200 0 5.41052
62      85.1528 3 4 200 766.375 6.98132
63      17.6116 1 2 200 0 12.5578
64      17.6116 1 2 200 0 6.28319
65      85.1528 3 4 200 766.375 7.85398
66      17.6116 1 2 200 0 13.4304
67      17.6116 1 2 200 0 7.15585
68      85.1528 3 4 200 766.375 8.72665
69      17.6116 1 2 200 0 14.3031
70      17.6116 1 2 200 0 8.02851
71      85.1528 3 4 200 766.375 9.59931
72      17.6116 1 2 200 0 15.1758
73      17.6116 1 2 200 0 8.90118
74      85.1528 3 4 200 766.375 10.472
75      17.6116 1 2 200 0 16.0484
76      17.6116 1 2 200 0 9.77384
77      85.1528 3 4 200 766.375 11.3446
78      17.6116 1 2 200 0 16.9211
79      14.9868 1 2 200 0 -0.698132
80      72.3799 3 4 200 766.375 0.872665
81      14.9868 1 2 200 0 6.44912
82      14.9868 1 2 200 0 0.174533
83      72.3799 3 4 200 766.375 1.74533
84      14.9868 1 2 200 0 7.32178
85      14.9868 1 2 200 0 1.0472
86      72.3799 3 4 200 766.375 2.61799
87      14.9868 1 2 200 0 8.19445
88      14.9868 1 2 200 0 1.91986
89      72.3799 3 4 200 766.375 3.49066
90      14.9868 1 2 200 0 9.06711
91      14.9868 1 2 200 0 2.79253
92      72.3799 3 4 200 766.375 4.36332
93      14.9868 1 2 200 0 9.93978
94      14.9868 1 2 200 0 3.66519
95      72.3799 3 4 200 766.375 5.23599
96      14.9868 1 2 200 0 10.8124
97      14.9868 1 2 200 0 4.53786
98      72.3799 3 4 200 766.375 6.10865
99      14.9868 1 2 200 0 11.6851
100      14.9868 1 2 200 0 5.41052
101      72.3799 3 4 200 766.375 6.98132
102      14.9868 1 2 200 0 12.5578
103      14.9868 1 2 200 0 6.28319
104      72.3799 3 4 200 766.375 7.85398
105      14.9868 1 2 200 0 13.4304
106      14.9868 1 2 200 0 7.15585
107      72.3799 3 4 200 766.375 8.72665
108      14.9868 1 2 200 0 14.3031
109      14.9868 1 2 200 0 8.02851
110      72.3799 3 4 200 766.375 9.59931
111      14.9868 1 2 200 0 15.1758
112      14.9868 1 2 200 0 8.90118
113      72.3799 3 4 200 766.375 10.472
114      14.9868 1 2 200 0 16.0484
115      14.9868 1 2 200 0 9.77384
116      72.3799 3 4 200 766.375 11.3446
117      14.9868 1 2 200 0 16.9211
118      7.95113 1 2 200 0 -0.698132
119      63.8646 3 4 200 1277.29 0.872665
120      7.95113 1 2 200 0 7.02516
121      7.95113 1 2 200 0 0.174533
122      63.8646 3 4 200 1277.29 1.74533
123      7.95113 1 2 200 0 7.89782
124      7.95113 1 2 200 0 1.0472
125      63.8646 3 4 200 1277.29 2.61799
126      7.95113 1 2 200 0 8.77049
127      7.95113 1 2 200 0 1.91986
128      63.8646 3 4 200 1277.29 3.49066
129      7.95113 1 2 200 0 9.64315
130      7.95113 1 2 200 0 2.79253
131      63.8646 3 4 200 1277.29 4.36332
132      7.95113 1 2 200 0 10.5158
133      7.95113 1 2 200 0 3.66519
134      63.8646 3 4 200 1277.29 5.23599
135      7.95113 1 2 200 0 11.3885
136      7.95113 1 2 200 0 4.53786
137      63.8646 3 4 200 1277.29 6.10865
138      7.95113 1 2 200 0 12.2611
139      7.95113 1 2 200 0 5.41052
140      63.8646 3 4 200 1277.29 6.98132
141      7.95113 1 2 200 0 13.1338
142      7.95113 1 2 200 0 6.28319
143      63.8646 3 4 200 1277.29 7.85398
144      7.95113 1 2 200 0 14.0065
145      7.95113 1 2 200 0 7.15585
146      63.8646 3 4 200 1277.29 8.72665
147      7.95113 1 2 200 0 14.8791
148      7.95113 1 2 200 0 8.02851
149      63.8646 3 4 200 1277.29 9.59931
150      7.95113 1 2 200 0 15.7518
151      7.95113 1 2 200 0 8.90118
152      63.8646 3 4 200 1277.29 10.472
153      7.95113 1 2 200 0 16.6245
154      7.95113 1 2 200 0 9.77384
155      63.8646 3 4 200 1277.29 11.3446
156      7.95113 1 2 200 0 17.4971
157      6.36281 1 2 200 0 -0.698132
158      51.0917 3 4 200 1277.29 0.872665
159      6.36281 1 2 200 0 7.02516
160      6.36281 1 2 200 0 0.174533
161      51.0917 3 4 200 1277.29 1.74533
162      6.36281 1 2 200 0 7.89782
163      6.36281 1 2 200 0 1.0472
164      51.0917 3 4 200 1277.29 2.61799
165      6.36281 1 2 200 0 8.77049
166      6.36281 1 2 200 0 1.91986
167      51.0917 3 4 200 1277.29 3.49066
168      6.36281 1 2 200 0 9.64315
169      6.36281 1 2 200 0 2.79253
170      51.0917 3 4 200 1277.29 4.36332
171      6.36281 1 2 200 0 10.5158
172      6.36281 1 2 200 0 3.66519
173      51.0917 3 4 200 1277.29 5.23599
174      6.36281 1 2 200 0 11.3885
175      6.36281 1 2 200 0 4.53786
176      51.0917 3 4 200 1277.29 6.10865
177      6.36281 1 2 200 0 12.2611
178      6.36281 1 2 200 0 5.41052
179      51.0917 3 4 200 1277.29 6.98132
180      6.36281 1 2 200 0 13.1338
181      6.36281 1 2 200 0 6.28319
182      51.0917 3 4 200 1277.29 7.85398
183      6.36281 1 2 200 0 14.0065
184      6.36281 1 2 200 0 7.15585
185      51.0917 3 4 200 1277.29 8.72665
186      6.36281 1 2 200 0 14.8791
187      6.36281 1 2 200 0 8.02851
188      51.0917 3 4 200 1277.29 9.59931
189      6.36281 1 2 200 0 15.7518
190      6.36281 1 2 200 0 8.90118
191      51.0917 3 4 200 1277.29 10.472
192      6.36281 1 2 200 0 16.6245
193      6.36281 1 2 200 0 9.77384
194      51.0917 3 4 200 1277.29 11.3446
195      6.36281 1 2 200 0 17.4971
196      19.7917 1 2 200 0 -0.698132
197      127.729 3 4 200 1021.83 0.872665
198      19.7917 1 2 200 0 3.59555
199      19.7917 1 2 200 0 0.174533
200      127.729 3 4 200 1021.83 1.74533
201      19.7917 1 2 200 0 4.46821
202      19.7917 1 2 200 0 1.0472
203      127.729 3 4 200 1021.83 2.61799
204      19.7917 1 2 200 0 5.34088
205      19.7917 1 2 200 0 1.91986
206      127.729 3 4 200 1021.83 3.49066
207      19.7917 1 2 200 0 6.21354
208      19.7917 1 2 200 0 2.79253
209      127.729 3 4 200 1021.83 4.36332
210      19.7917 1 2 200 0 7.0862
211      19.7917 1 2 200 0 3.66519
212      127.729 3 4 200 1021.83 5.23599
213      19.7917 1 2 200 0 7.95887
214      19.7917 1 2 200 0 4.53786
215      127.729 3 4 200 1021.83 6.10865
216      19.7917 1 2 200 0 8.83153
217      19.7917 1 2 200 0 5.41052
218      127.729 3 4 200 1021.83 6.98132
219      19.7917 1 2 200 0 9.7042
220      19.7917 1 2 200 0 6.28319
221      127.729 3 4 200 1021.83 7.85398
222      19.7917 1 2 200 0 10.5769
223      19.7917 1 2 200 0 7.15585
224      127.729 3 4 200 1021.83 8.72665
225      19.7917 1 2 200 0 11.4495
226      19.7917 1 2 200 0 8.02851
227      127.729 3 4 200 1021.83 9.59931
228      19.7917 1 2 200 0 12.3222
229      19.7917 1 2 200 0 8.90118
230      127.729 3 4 200 1021.83 10.472
231      19.7917 1 2 200 0 13.1949
232      19.7917 1 2 200 0 9.77384
233      127.729 3 4 200 1021.83 11.3446
234      19.7917 1 2 200 0 14.0675
235      4.41983 1 2 200 0 -0.698132
236      21.2882 3 4 200 766.375 0.872665
237      4.41983 1 2 200 0 6.44912
238      4.41983 1 2 200 0 0.174533
239      21.2882 3 4 200 766.375 1.74533
240      4.41983 1 2 200 0 7.32178
241      4.41983 1 2 200 0 1.0472
242      21.2882 3 4 200 766.375 2.61799
243      4.41983 1 2 200 0 8.19445
244      4.41983 1 2 200 0 1.91986
245      21.2882 3 4 200 766.375 3.49066
246      4.41983 1 2 200 0 9.06711
247      4.41983 1 2 200 0 2.79253
248      21.2882 3 4 200 766.375 4.36332
249      4.41983 1 2 200 0 9.93978
250      4.41983 1 2 200 0 3.66519
251      21.2882 3 4 200 766.375 5.23599
252      4.41983 1 2 200 0 10.8124
253      4.41983 1 2 200 0 4.53786
254      21.2882 3 4 200 766.375 6.10865
255      4.41983 1 2 200 0 11.6851
256      4.41983 1 2 200 0 5.41052
257      21.2882 3 4 200 766.375 6.98132
258      4.41983 1 2 200 0 12.5578
259      4.41983 1 2 200 0 6.28319
260      21.2882 3 4 200 766.375 7.85398
261      4.41983 1 2 200 0 13.4304
262      4.41983 1 2 200 0 7.15585
263      21.2882 3 4 200 766.375 8.72665
264      4.41983 1 2 200 0 14.3031
265      4.41983 1 2 200 0 8.02851
266      21.2882 3 4 200 766.375 9.59931
267      4.41983 1 2 200 0 15.1758
268      4.41983 1 2 200 0 8.90118
269      21.2882 3 4 200 766.375 10.472
270      4.41983 1 2 200 0 16.0484
271      4.41983 1 2 200 0 9.77384
272      21.2882 3 4 200 766.375 11.3446
273      4.41983 1 2 200 0 16.9211
274      3.78869 1 2 200 0 -0.698132
275      42.5764 3 4 200 1788.21 0.872665
276      3.78869 1 2 200 0 7.6012
277      3.78869 1 2 200 0 0.174533
278      42.5764 3 4 200 1788.21 1.74533
279      3.78869 1 2 200 0 8.47387
280      3.78869 1 2 200 0 1.0472
281      42.5764 3 4 200 1788.21 2.61799
282      3.78869 1 2 200 0 9.34653
283      3.78869 1 2 200 0 1.91986
284      42.5764 3 4 200 1788.21 3.49066
285      3.78869 1 2 200 0 10.2192
286      3.78869 1 2 200 0 2.79253
287      42.5764 3 4 200 1788.21 4.36332
288      3.78869 1 2 200 0 11.0919
289      3.78869 1 2 200 0 3.66519
290      42.5764 3 4 200 1788.21 5.23599
291      3.78869 1 2 200 0 11.9645
292      3.78869 1 2 200 0 4.53786
293      42.5764 3 4 200 1788.21 6.10865
294      3.78869 1 2 200 0 12.8372
295      3.78869 1 2 200 0 5.41052
296      42.5764 3 4 200 1788.21 6.98132
297      3.78869 1 2 200 0 13.7099
298      3.78869 1 2 200 0 6.28319
299      42.5764 3 4 200 1788.21 7.85398
300      3.78869 1 2 200 0 14.5825
301      3.78869 1 2 200 0 7.15585
302      42.5764 3 4 200 1788.21 8.72665
303      3.78869 1 2 200 0 15.4552
304      3.78869 1 2 200 0 8.02851
305      42.5764 3 4 200 1788.21 9.59931
306      3.78869 1 2 200 0 16.3278
307      3.78869 1 2 200 0 8.90118
308      42.5764 3 4 200 1788.21 10.472
309      3.78869 1 2 200 0 17.2005
310      3.78869 1 2 200 0 9.77384
311      42.5764 3 4 200 1788.21 11.3446
312      3.78869 1 2 200 0 18.0732
313      8.32908 1 2 200 0 -0.698132
314      93.6681 3 4 200 1788.21 0.872665
315      8.32908 1 2 200 0 7.6012
316      8.32908 1 2 200 0 0.174533
317      93.6681 3 4 200 1788.21 1.74533
318      8.32908 1 2 200 0 8.47387
319      8.32908 1 2 200 0 1.0472
320      93.6681 3 4 200 1788.21 2.61799
321      8.32908 1 2 200 0 9.34653
322      8.32908 1 2 200 0 1.91986
323      93.6681 3 4 200 1788.21 3.49066
324      8.32908 1 2 200 0 10.2192
325      8.32908 1 2 200 0 2.79253
326      93.6681 3 4 200 1788.21 4.36332
327      8.32908 1 2 200 0 11.0919
328      8.32908 1 2 200 0 3.66519
329      93.6681 3 4 200 1788.21 5.23599
330      8.32908 1 2 200 0 11.9645
331      8.32908 1 2 200 0 4.53786
332      93.6681 3 4 200 1788.21 6.10865
333      8.32908 1 2 200 0 12.8372
334      8.32908 1 2 200 0 5.41052
335      93.6681 3 4 200 1788.21 6.98132
336      8.32908 1 2 200 0 13.7099
337      8.32908 1 2 200 0 6.28319
338      93.6681 3 4 200 1788.21 7.85398
339      8.32908 1 2 200 0 14.5825
340      8.32908 1 2 200 0 7.15585
341      93.6681 3 4 200 1788.21 8.72665
342      8.32908 1 2 200 0 15.4552
343      8.32908 1 2 200 0 8.02851
344      93.6681 3 4 200 1788.21 9.59931
345      8.32908 1 2 200 0 16.3278
346      8.32908 1 2 200 0 8.90118
347      93.6681 3 4 200 1788.21 10.472
348      8.32908 1 2 200 0 17.2005
349      8.32908 1 2 200 0 9.77384
350      93.6681 3 4 200 1788.21 11.3446
351      8.32908 1 2 200 0 18.0732
352      16.9126 1 2 200 0 -0.698132
353      136.244 3 4 200 1277.29 0.872665
354      16.9126 1 2 200 0 7.02516
355      16.9126 1 2 200 0 0.174533
356      136.244 3 4 200 1277.29 1.74533
357      16.9126 1 2 200 0 7.89782
358      16.9126 1 2 200 0 1.0472
359      136.244 3 4 200 1277.29 2.61799
360      16.9126 1 2 200 0 8.77049
361      16.9126 1 2 200 0 1.91986
362      136.244 3 4 200 1277.29 3.49066
363      16.9126 1 2 200 0 9.64315
364      16.9126 1 2 200 0 2.79253
365      136.244 3 4 200 1277.29 4.36332
366      16.9126 1 2 200 0 10.5158
367      16.9126 1 2 200 0 3.66519
368      136.244 3 4 200 1277.29 5.23599
369      16.9126 1 2 200 0 11.3885
370      16.9126 1 2 200 0 4.53786
371      136.244 3 4 200 1277.29 6.10865
372      16.9126 1 2 200 0 12.2611
373      16.9126 1 2 200 0 5.41052
374      136.244 3 4 200 1277.29 6.98132
375      16.9126 1 2 200 0 13.1338
376      16.9126 1 2 200 0 6.28319
377      136.244 3 4 200 1277.29 7.85398
378      16.9126 1 2 200 0 14.0065
379      16.9126 1 2 200 0 7.15585
380      136.244 3 4 200 1277.29 8.72665
381      16.9126 1 2 200 0 14.8791
382      16.9126 1 2 200 0 8.02851
383      136.244 3 4 200 1277.29 9.59931
384      16.9126 1 2 200 0 15.7518
385      16.9126 1 2 200 0 8.90118
386      136.244 3 4 200 1277.29 10.472
387      16.9126 1 2 200 0 16.6245
388      16.9126 1 2 200 0 9.77384
389      136.244 3 4 200 1277.29 11.3446
390      16.9126 1 2 200 0 17.4971
391      63.8646 3 4 200 766.375 0.872665
392      13.2323 1 2 200 0 6.44912
393      63.8646 3 4 200 766.375 1.74533
394      13.2323 1 2 200 0 7.32178
395      63.8646 3 4 200 766.375 2.61799
396      13.2323 1 2 200 0 8.19445
397      63.8646 3 4 200 766.375 3.49066
398      13.2323 1 2 200 0 9.06711
399      63.8646 3 4 200 766.375 4.36332
400      13.2323 1 2 200 0 9.93978
401      63.8646 3 4 200 766.375 5.23599
402      13.2323 1 2 200 0 10.8124
403      63.8646 3 4 200 766.375 6.10865
404      13.2323 1 2 200 0 11.6851
405      63.8646 3 4 200 766.375 6.98132
406      13.2323 1 2 200 0 12.5578
407      63.8646 3 4 200 766.375 7.85398
408      13.2323 1 2 200 0 13.4304
409      63.8646 3 4 200 766.375 8.72665
410      13.2323 1 2 200 0 14.3031
411      63.8646 3 4 200 766.375 9.59931
412      13.2323 1 2 200 0 15.1758
413      63.8646 3 4 200 766.375 10.472
414      13.2323 1 2 200 0 16.0484
415      63.8646 3 4 200 766.375 11.3446
416      13.2323 1 2 200 0 16.9211
417      3.71294 1 2 200 0 -0.698132
418      29.8035 3 4 200 1277.29 0.872665
419      3.71294 1 2 200 0 7.02516
420      3.71294 1 2 200 0 0.174533
421      29.8035 3 4 200 1277.29 1.74533
422      3.71294 1 2 200 0 7.89782
423      3.71294 1 2 200 0 1.0472
424      29.8035 3 4 200 1277.29 2.61799
425      3.71294 1 2 200 0 8.77049
426      3.71294 1 2 200 0 1.91986
427      29.8035 3 4 200 1277.29 3.49066
428      3.71294 1 2 200 0 9.64315
429      3.71294 1 2 200 0 2.79253
430      29.8035 3 4 200 1277.29 4.36332
431      3.71294 1 2 200 0 10.5158
432      3.71294 1 2 200 0 3.66519
433      29.8035 3 4 200 1277.29 5.23599
434      3.71294 1 2 200 0 11.3885
435      3.71294 1 2 200 0 4.53786
436      29.8035 3 4 200 1277.29 6.10865
437      3.71294 1 2 200 0 12.2611
438      3.71294 1 2 200 0 5.41052
439      29.8035 3 4 200 1277.29 6.98132
440      3.71294 1 2 200 0 13.1338
441      3.71294 1 2 200 0 6.28319
442      29.8035 3 4 200 1277.29 7.85398
443      3.71294 1 2 200 0 14.0065
444      3.71294 1 2 200 0 7.15585
445      29.8035 3 4 200 1277.29 8.72665
446      3.71294 1 2 200 0 14.8791
447      3.71294 1 2 200 0 8.02851
448      29.8035 3 4 200 1277.29 9.59931
449      3.71294 1 2 200 0 15.7518
450      3.71294 1 2 200 0 8.90118
451      29.8035 3 4 200 1277.29 10.472
452      3.71294 1 2 200 0 16.6245
453      3.71294 1 2 200 0 9.77384
454      29.8035 3 4 200 1277.29 11.3446
455      3.71294 1 2 200 0 17.4971
456      9.93426 1 2 200 0 -0.698132
457      63.8646 3 4 200 1021.83 0.872665
458      9.93426 1 2 200 0 3.59555
459      9.93426 1 2 200 0 0.174533
460      63.8646 3 4 200 1021.83 1.74533
461      9.93426 1 2 200 0 4.46821
462      9.93426 1 2 200 0 1.0472
463      63.8646 3 4 200 1021.83 2.61799
464      9.93426 1 2 200 0 5.34088
465      9.93426 1 2 200 0 1.91986
466      63.8646 3 4 200 1021.83 3.49066
467      9.93426 1 2 200 0 6.21354
468      9.93426 1 2 200 0 2.79253
469      63.8646 3 4 200 1021.83 4.36332
470      9.93426 1 2 200 0 7.0862
471      9.93426 1 2 200 0 3.66519
472      63.8646 3 4 200 1021.83 5.23599
473      9.93426 1 2 200 0 7.95887
474      9.93426 1 2 200 0 4.53786
475      63.8646 3 4 200 1021.83 6.10865
476      9.93426 1 2 200 0 8.83153
477      9.93426 1 2 200 0 5.41052
478      63.8646 3 4 200 1021.83 6.98132
479      9.93426 1 2 200 0 9.7042
480      9.93426 1 2 200 0 6.28319
481      63.8646 3 4 200 1021.83 7.85398
482      9.93426 1 2 200 0 10.5769
483      9.93426 1 2 200 0 7.15585
484      63.8646 3 4 200 1021.83 8.72665
485      9.93426 1 2 200 0 11.4495
486      9.93426 1 2 200 0 8.02851
487      63.8646 3 4 200 1021.83 9.59931
488      9.93426 1 2 200 0 12.3222
489      9.93426 1 2 200 0 8.90118
490      63.8646 3 4 200 1021.83 10.472
491      9.93426 1 2 200 0 13.1949
492      9.93426 1 2 200 0 9.77384
493      63.8646 3 4 200 1021.83 11.3446
494      9.93426 1 2 200 0 14.0675
495      19.3563 1 2 200 0 -0.698132
496      93.6681 3 4 200 766.375 0.872665
497      19.3563 1 2 200 0 6.44912
498      19.3563 1 2 200 0 0.174533
499      93.6681 3 4 200 766.375 1.74533
500      19.3563 1 2 200 0 7.32178
501      19.3563 1 2 200 0 1.0472
502      93.6681 3 4 200 766.375 2.61799
503      19.3563 1 2 200 0 8.19445
504      19.3563 1 2 200 0 1.91986
505      93.6681 3 4 200 766.375 3.49066
506      19.3563 1 2 200 0 9.06711
507      19.3563 1 2 200 0 2.79253
508      93.6681 3 4 200 766.375 4.36332
509      19.3563 1 2 200 0 9.93978
510      19.3563 1 2 200 0 3.66519
511      93.6681 3 4 200 766.375 5.23599
512      19.3563 1 2 200 0 10.8124
513      19.3563 1 2 200 0 4.53786
514      93.6681 3 4 200 766.375 6.10865
515      19.3563 1 2 200 0 11.6851
516      19.3563 1 2 200 0 5.41052
517      93.6681 3 4 200 766.375 6.98132
518      19.3563 1 2 200 0 12.5578
519      19.3563 1 2 200 0 6.28319
520      93.6681 3 4 200 766.375 7.85398
521      19.3563 1 2 200 0 13.4304
522      19.3563 1 2 200 0 7.15585
523      93.6681 3 4 200 766.375 8.72665
524      19.3563 1 2 200 0 14.3031
525      19.3563 1 2 200 0 8.02851
526      93.6681 3 4 200 766.375 9.59931
527      19.3563 1 2 200 0 15.1758
528      19.3563 1 2 200 0 8.90118
529      93.6681 3 4 200 766.375 10.472
530      19.3563 1 2 200 0 16.0484
531      19.3563 1 2 200 0 9.77384
532      93.6681 3 4 200 766.375 11.3446
533      19.3563 1 2 200 0 16.9211
534      16.5191 1 2 200 0 -0.698132
535      106.441 3 4 200 1021.83 0.872665
536      16.5191 1 2 200 0 3.59555
537      16.5191 1 2 200 0 0.174533
538      106.441 3 4 200 1021.83 1.74533
539      16.5191 1 2 200 0 4.46821
540      16.5191 1 2 200 0 1.0472
541      106.441 3 4 200 1021.83 2.61799
542      16.5191 1 2 200 0 5.34088
