# Pulseq sequence file
# Created by MATLAB mr toolbox

# Created for Pulseq-CEST
# https://pulseq-cest.github.io/
# Created by: Lukas Kamm
# Created at: 03-Apr-2022 12:29:11

[VERSION]
major 1
minor 3
revision 1

[DEFINITIONS]
B0 3 
B1cwpe 0.523518576 
DCsat 0.505928854 
M0_offset -300 
Trec 0 
Trec_M0 12 
Tsat 3.2184 
n_pulses 80 
num_meas 54 
offsets_ppm -300 -100 -50 -40 -30 -20 -10 -9.5 -9 -8.5 -8 -7.5 -7 -6.5 -6 -5.5 -5 -4.5 -4 -3.5 -3 -2.5 -2 -1.5 -1 -0.5 -0.25 0 0.25 0.5 1 1.5 2 2.5 3 3.5 4 4.5 5 5.5 6 6.5 7 7.5 8 8.5 9 9.5 10 20 30 40 50 100 
seq_id_string MultiPool_3T_001_0p6uT_80Gauss_DC50_3200ms_GLINT 
td 0.02 
tp 0.02048 

# Format of blocks:
#  #  D RF  GX  GY  GZ ADC EXT
[BLOCKS]
   1  1  0   0   0   0  0  0
   2  0  1   0   0   0  0  0
   3  2  0   0   0   0  0  0
   4  0  2   0   0   0  0  0
   5  2  0   0   0   0  0  0
   6  0  3   0   0   0  0  0
   7  2  0   0   0   0  0  0
   8  0  4   0   0   0  0  0
   9  2  0   0   0   0  0  0
  10  0  5   0   0   0  0  0
  11  2  0   0   0   0  0  0
  12  0  6   0   0   0  0  0
  13  2  0   0   0   0  0  0
  14  0  7   0   0   0  0  0
  15  2  0   0   0   0  0  0
  16  0  8   0   0   0  0  0
  17  2  0   0   0   0  0  0
  18  0  9   0   0   0  0  0
  19  2  0   0   0   0  0  0
  20  0 10   0   0   0  0  0
  21  2  0   0   0   0  0  0
  22  0 11   0   0   0  0  0
  23  2  0   0   0   0  0  0
  24  0 12   0   0   0  0  0
  25  2  0   0   0   0  0  0
  26  0 13   0   0   0  0  0
  27  2  0   0   0   0  0  0
  28  0 14   0   0   0  0  0
  29  2  0   0   0   0  0  0
  30  0 15   0   0   0  0  0
  31  2  0   0   0   0  0  0
  32  0 16   0   0   0  0  0
  33  2  0   0   0   0  0  0
  34  0 17   0   0   0  0  0
  35  2  0   0   0   0  0  0
  36  0 18   0   0   0  0  0
  37  2  0   0   0   0  0  0
  38  0 19   0   0   0  0  0
  39  2  0   0   0   0  0  0
  40  0 20   0   0   0  0  0
  41  2  0   0   0   0  0  0
  42  0 21   0   0   0  0  0
  43  2  0   0   0   0  0  0
  44  0 22   0   0   0  0  0
  45  2  0   0   0   0  0  0
  46  0 23   0   0   0  0  0
  47  2  0   0   0   0  0  0
  48  0 24   0   0   0  0  0
  49  2  0   0   0   0  0  0
  50  0 25   0   0   0  0  0
  51  2  0   0   0   0  0  0
  52  0 26   0   0   0  0  0
  53  2  0   0   0   0  0  0
  54  0 27   0   0   0  0  0
  55  2  0   0   0   0  0  0
  56  0 28   0   0   0  0  0
  57  2  0   0   0   0  0  0
  58  0 29   0   0   0  0  0
  59  2  0   0   0   0  0  0
  60  0 30   0   0   0  0  0
  61  2  0   0   0   0  0  0
  62  0 31   0   0   0  0  0
  63  2  0   0   0   0  0  0
  64  0 32   0   0   0  0  0
  65  2  0   0   0   0  0  0
  66  0 33   0   0   0  0  0
  67  2  0   0   0   0  0  0
  68  0 34   0   0   0  0  0
  69  2  0   0   0   0  0  0
  70  0 35   0   0   0  0  0
  71  2  0   0   0   0  0  0
  72  0 36   0   0   0  0  0
  73  2  0   0   0   0  0  0
  74  0 37   0   0   0  0  0
  75  2  0   0   0   0  0  0
  76  0 38   0   0   0  0  0
  77  2  0   0   0   0  0  0
  78  0 39   0   0   0  0  0
  79  2  0   0   0   0  0  0
  80  0 40   0   0   0  0  0
  81  2  0   0   0   0  0  0
  82  0 41   0   0   0  0  0
  83  2  0   0   0   0  0  0
  84  0 42   0   0   0  0  0
  85  2  0   0   0   0  0  0
  86  0 43   0   0   0  0  0
  87  2  0   0   0   0  0  0
  88  0 44   0   0   0  0  0
  89  2  0   0   0   0  0  0
  90  0 45   0   0   0  0  0
  91  2  0   0   0   0  0  0
  92  0 46   0   0   0  0  0
  93  2  0   0   0   0  0  0
  94  0 47   0   0   0  0  0
  95  2  0   0   0   0  0  0
  96  0 48   0   0   0  0  0
  97  2  0   0   0   0  0  0
  98  0 49   0   0   0  0  0
  99  2  0   0   0   0  0  0
 100  0 50   0   0   0  0  0
 101  2  0   0   0   0  0  0
 102  0 51   0   0   0  0  0
 103  2  0   0   0   0  0  0
 104  0 52   0   0   0  0  0
 105  2  0   0   0   0  0  0
 106  0 53   0   0   0  0  0
 107  2  0   0   0   0  0  0
 108  0 54   0   0   0  0  0
 109  2  0   0   0   0  0  0
 110  0 55   0   0   0  0  0
 111  2  0   0   0   0  0  0
 112  0 56   0   0   0  0  0
 113  2  0   0   0   0  0  0
 114  0 57   0   0   0  0  0
 115  2  0   0   0   0  0  0
 116  0 58   0   0   0  0  0
 117  2  0   0   0   0  0  0
 118  0 59   0   0   0  0  0
 119  2  0   0   0   0  0  0
 120  0 60   0   0   0  0  0
 121  2  0   0   0   0  0  0
 122  0 61   0   0   0  0  0
 123  2  0   0   0   0  0  0
 124  0 62   0   0   0  0  0
 125  2  0   0   0   0  0  0
 126  0 63   0   0   0  0  0
 127  2  0   0   0   0  0  0
 128  0 64   0   0   0  0  0
 129  2  0   0   0   0  0  0
 130  0 65   0   0   0  0  0
 131  2  0   0   0   0  0  0
 132  0 66   0   0   0  0  0
 133  2  0   0   0   0  0  0
 134  0 67   0   0   0  0  0
 135  2  0   0   0   0  0  0
 136  0 68   0   0   0  0  0
 137  2  0   0   0   0  0  0
 138  0 69   0   0   0  0  0
 139  2  0   0   0   0  0  0
 140  0 70   0   0   0  0  0
 141  2  0   0   0   0  0  0
 142  0 71   0   0   0  0  0
 143  2  0   0   0   0  0  0
 144  0 72   0   0   0  0  0
 145  2  0   0   0   0  0  0
 146  0 73   0   0   0  0  0
 147  2  0   0   0   0  0  0
 148  0 74   0   0   0  0  0
 149  2  0   0   0   0  0  0
 150  0 75   0   0   0  0  0
 151  2  0   0   0   0  0  0
 152  0 76   0   0   0  0  0
 153  2  0   0   0   0  0  0
 154  0 77   0   0   0  0  0
 155  2  0   0   0   0  0  0
 156  0 78   0   0   0  0  0
 157  2  0   0   0   0  0  0
 158  0 79   0   0   0  0  0
 159  2  0   0   0   0  0  0
 160  0 80   0   0   0  0  0
 161  0  0   1   1   1  0  0
 162  0  0   0   0   0  1  0
 163  0 81   0   0   0  0  0
 164  2  0   0   0   0  0  0
 165  0 82   0   0   0  0  0
 166  2  0   0   0   0  0  0
 167  0 83   0   0   0  0  0
 168  2  0   0   0   0  0  0
 169  0 84   0   0   0  0  0
 170  2  0   0   0   0  0  0
 171  0 85   0   0   0  0  0
 172  2  0   0   0   0  0  0
 173  0 86   0   0   0  0  0
 174  2  0   0   0   0  0  0
 175  0 87   0   0   0  0  0
 176  2  0   0   0   0  0  0
 177  0 88   0   0   0  0  0
 178  2  0   0   0   0  0  0
 179  0 89   0   0   0  0  0
 180  2  0   0   0   0  0  0
 181  0 90   0   0   0  0  0
 182  2  0   0   0   0  0  0
 183  0 91   0   0   0  0  0
 184  2  0   0   0   0  0  0
 185  0 92   0   0   0  0  0
 186  2  0   0   0   0  0  0
 187  0 93   0   0   0  0  0
 188  2  0   0   0   0  0  0
 189  0 94   0   0   0  0  0
 190  2  0   0   0   0  0  0
 191  0 95   0   0   0  0  0
 192  2  0   0   0   0  0  0
 193  0 96   0   0   0  0  0
 194  2  0   0   0   0  0  0
 195  0 97   0   0   0  0  0
 196  2  0   0   0   0  0  0
 197  0 98   0   0   0  0  0
 198  2  0   0   0   0  0  0
 199  0 99   0   0   0  0  0
 200  2  0   0   0   0  0  0
 201  0 100   0   0   0  0  0
 202  2  0   0   0   0  0  0
 203  0 101   0   0   0  0  0
 204  2  0   0   0   0  0  0
 205  0 102   0   0   0  0  0
 206  2  0   0   0   0  0  0
 207  0 103   0   0   0  0  0
 208  2  0   0   0   0  0  0
 209  0 104   0   0   0  0  0
 210  2  0   0   0   0  0  0
 211  0 105   0   0   0  0  0
 212  2  0   0   0   0  0  0
 213  0 106   0   0   0  0  0
 214  2  0   0   0   0  0  0
 215  0 107   0   0   0  0  0
 216  2  0   0   0   0  0  0
 217  0 108   0   0   0  0  0
 218  2  0   0   0   0  0  0
 219  0 109   0   0   0  0  0
 220  2  0   0   0   0  0  0
 221  0 110   0   0   0  0  0
 222  2  0   0   0   0  0  0
 223  0 111   0   0   0  0  0
 224  2  0   0   0   0  0  0
 225  0 112   0   0   0  0  0
 226  2  0   0   0   0  0  0
 227  0 113   0   0   0  0  0
 228  2  0   0   0   0  0  0
 229  0 114   0   0   0  0  0
 230  2  0   0   0   0  0  0
 231  0 115   0   0   0  0  0
 232  2  0   0   0   0  0  0
 233  0 116   0   0   0  0  0
 234  2  0   0   0   0  0  0
 235  0 117   0   0   0  0  0
 236  2  0   0   0   0  0  0
 237  0 118   0   0   0  0  0
 238  2  0   0   0   0  0  0
 239  0 119   0   0   0  0  0
 240  2  0   0   0   0  0  0
 241  0 120   0   0   0  0  0
 242  2  0   0   0   0  0  0
 243  0 121   0   0   0  0  0
 244  2  0   0   0   0  0  0
 245  0 122   0   0   0  0  0
 246  2  0   0   0   0  0  0
 247  0 123   0   0   0  0  0
 248  2  0   0   0   0  0  0
 249  0 124   0   0   0  0  0
 250  2  0   0   0   0  0  0
 251  0 125   0   0   0  0  0
 252  2  0   0   0   0  0  0
 253  0 126   0   0   0  0  0
 254  2  0   0   0   0  0  0
 255  0 127   0   0   0  0  0
 256  2  0   0   0   0  0  0
 257  0 128   0   0   0  0  0
 258  2  0   0   0   0  0  0
 259  0 129   0   0   0  0  0
 260  2  0   0   0   0  0  0
 261  0 130   0   0   0  0  0
 262  2  0   0   0   0  0  0
 263  0 131   0   0   0  0  0
 264  2  0   0   0   0  0  0
 265  0 132   0   0   0  0  0
 266  2  0   0   0   0  0  0
 267  0 133   0   0   0  0  0
 268  2  0   0   0   0  0  0
 269  0 134   0   0   0  0  0
 270  2  0   0   0   0  0  0
 271  0 135   0   0   0  0  0
 272  2  0   0   0   0  0  0
 273  0 136   0   0   0  0  0
 274  2  0   0   0   0  0  0
 275  0 137   0   0   0  0  0
 276  2  0   0   0   0  0  0
 277  0 138   0   0   0  0  0
 278  2  0   0   0   0  0  0
 279  0 139   0   0   0  0  0
 280  2  0   0   0   0  0  0
 281  0 140   0   0   0  0  0
 282  2  0   0   0   0  0  0
 283  0 141   0   0   0  0  0
 284  2  0   0   0   0  0  0
 285  0 142   0   0   0  0  0
 286  2  0   0   0   0  0  0
 287  0 143   0   0   0  0  0
 288  2  0   0   0   0  0  0
 289  0 144   0   0   0  0  0
 290  2  0   0   0   0  0  0
 291  0 145   0   0   0  0  0
 292  2  0   0   0   0  0  0
 293  0 146   0   0   0  0  0
 294  2  0   0   0   0  0  0
 295  0 147   0   0   0  0  0
 296  2  0   0   0   0  0  0
 297  0 148   0   0   0  0  0
 298  2  0   0   0   0  0  0
 299  0 149   0   0   0  0  0
 300  2  0   0   0   0  0  0
 301  0 150   0   0   0  0  0
 302  2  0   0   0   0  0  0
 303  0 151   0   0   0  0  0
 304  2  0   0   0   0  0  0
 305  0 152   0   0   0  0  0
 306  2  0   0   0   0  0  0
 307  0 153   0   0   0  0  0
 308  2  0   0   0   0  0  0
 309  0 154   0   0   0  0  0
 310  2  0   0   0   0  0  0
 311  0 155   0   0   0  0  0
 312  2  0   0   0   0  0  0
 313  0 156   0   0   0  0  0
 314  2  0   0   0   0  0  0
 315  0 157   0   0   0  0  0
 316  2  0   0   0   0  0  0
 317  0 158   0   0   0  0  0
 318  2  0   0   0   0  0  0
[RF]
1      51.3013 1 2 100 -38318.8 0
2      51.3013 1 2 100 -38318.8 1.69718
3      51.3013 1 2 100 -38318.8 3.39435
4      51.3013 1 2 100 -38318.8 5.09153
5      51.3013 1 2 100 -38318.8 0.505519
6      51.3013 1 2 100 -38318.8 2.2027
7      51.3013 1 2 100 -38318.8 3.89987
8      51.3013 1 2 100 -38318.8 5.59705
9      51.3013 1 2 100 -38318.8 1.01104
10      51.3013 1 2 100 -38318.8 2.70821
11      51.3013 1 2 100 -38318.8 4.40539
12      51.3013 1 2 100 -38318.8 6.10257
13      51.3013 1 2 100 -38318.8 1.51656
14      51.3013 1 2 100 -38318.8 3.21373
15      51.3013 1 2 100 -38318.8 4.91091
16      51.3013 1 2 100 -38318.8 0.3249
17      51.3013 1 2 100 -38318.8 2.02208
18      51.3013 1 2 100 -38318.8 3.71925
19      51.3013 1 2 100 -38318.8 5.41643
20      51.3013 1 2 100 -38318.8 0.830419
21      51.3013 1 2 100 -38318.8 2.52759
22      51.3013 1 2 100 -38318.8 4.22477
23      51.3013 1 2 100 -38318.8 5.92195
24      51.3013 1 2 100 -38318.8 1.33594
25      51.3013 1 2 100 -38318.8 3.03311
26      51.3013 1 2 100 -38318.8 4.73029
27      51.3013 1 2 100 -38318.8 0.144281
28      51.3013 1 2 100 -38318.8 1.84146
29      51.3013 1 2 100 -38318.8 3.53863
30      51.3013 1 2 100 -38318.8 5.23581
31      51.3013 1 2 100 -38318.8 0.649799
32      51.3013 1 2 100 -38318.8 2.34698
33      51.3013 1 2 100 -38318.8 4.04415
34      51.3013 1 2 100 -38318.8 5.74133
35      51.3013 1 2 100 -38318.8 1.15532
36      51.3013 1 2 100 -38318.8 2.85249
37      51.3013 1 2 100 -38318.8 4.54967
38      51.3013 1 2 100 -38318.8 6.24685
39      51.3013 1 2 100 -38318.8 1.66084
40      51.3013 1 2 100 -38318.8 3.35801
41      51.3013 1 2 100 -38318.8 5.05519
42      51.3013 1 2 100 -38318.8 0.46918
43      51.3013 1 2 100 -38318.8 2.16636
44      51.3013 1 2 100 -38318.8 3.86353
45      51.3013 1 2 100 -38318.8 5.56071
46      51.3013 1 2 100 -38318.8 0.974699
47      51.3013 1 2 100 -38318.8 2.67188
48      51.3013 1 2 100 -38318.8 4.36905
49      51.3013 1 2 100 -38318.8 6.06623
50      51.3013 1 2 100 -38318.8 1.48022
51      51.3013 1 2 100 -38318.8 3.17739
52      51.3013 1 2 100 -38318.8 4.87457
53      51.3013 1 2 100 -38318.8 0.288561
54      51.3013 1 2 100 -38318.8 1.98574
55      51.3013 1 2 100 -38318.8 3.68291
56      51.3013 1 2 100 -38318.8 5.38009
57      51.3013 1 2 100 -38318.8 0.79408
58      51.3013 1 2 100 -38318.8 2.49126
59      51.3013 1 2 100 -38318.8 4.18843
60      51.3013 1 2 100 -38318.8 5.88561
61      51.3013 1 2 100 -38318.8 1.2996
62      51.3013 1 2 100 -38318.8 2.99678
63      51.3013 1 2 100 -38318.8 4.69395
64      51.3013 1 2 100 -38318.8 0.107942
65      51.3013 1 2 100 -38318.8 1.80512
66      51.3013 1 2 100 -38318.8 3.50229
67      51.3013 1 2 100 -38318.8 5.19947
68      51.3013 1 2 100 -38318.8 0.613461
69      51.3013 1 2 100 -38318.8 2.31064
70      51.3013 1 2 100 -38318.8 4.00781
71      51.3013 1 2 100 -38318.8 5.70499
72      51.3013 1 2 100 -38318.8 1.11898
73      51.3013 1 2 100 -38318.8 2.81616
74      51.3013 1 2 100 -38318.8 4.51333
75      51.3013 1 2 100 -38318.8 6.21051
76      51.3013 1 2 100 -38318.8 1.6245
77      51.3013 1 2 100 -38318.8 3.32167
78      51.3013 1 2 100 -38318.8 5.01885
79      51.3013 1 2 100 -38318.8 0.432842
80      51.3013 1 2 100 -38318.8 2.13002
81      51.3013 1 2 100 -12772.9 0
82      51.3013 1 2 100 -12772.9 2.66012
83      51.3013 1 2 100 -12772.9 5.32024
84      51.3013 1 2 100 -12772.9 1.69718
85      51.3013 1 2 100 -12772.9 4.3573
86      51.3013 1 2 100 -12772.9 0.734232
87      51.3013 1 2 100 -12772.9 3.39435
88      51.3013 1 2 100 -12772.9 6.05447
89      51.3013 1 2 100 -12772.9 2.43141
90      51.3013 1 2 100 -12772.9 5.09153
91      51.3013 1 2 100 -12772.9 1.46846
92      51.3013 1 2 100 -12772.9 4.12858
93      51.3013 1 2 100 -12772.9 0.505519
94      51.3013 1 2 100 -12772.9 3.16564
95      51.3013 1 2 100 -12772.9 5.82576
96      51.3013 1 2 100 -12772.9 2.2027
97      51.3013 1 2 100 -12772.9 4.86282
98      51.3013 1 2 100 -12772.9 1.23975
99      51.3013 1 2 100 -12772.9 3.89987
100      51.3013 1 2 100 -12772.9 0.276806
101      51.3013 1 2 100 -12772.9 2.93693
102      51.3013 1 2 100 -12772.9 5.59705
103      51.3013 1 2 100 -12772.9 1.97398
104      51.3013 1 2 100 -12772.9 4.6341
105      51.3013 1 2 100 -12772.9 1.01104
106      51.3013 1 2 100 -12772.9 3.67116
107      51.3013 1 2 100 -12772.9 0.0480935
108      51.3013 1 2 100 -12772.9 2.70821
109      51.3013 1 2 100 -12772.9 5.36833
110      51.3013 1 2 100 -12772.9 1.74527
111      51.3013 1 2 100 -12772.9 4.40539
112      51.3013 1 2 100 -12772.9 0.782325
113      51.3013 1 2 100 -12772.9 3.44245
114      51.3013 1 2 100 -12772.9 6.10257
115      51.3013 1 2 100 -12772.9 2.4795
116      51.3013 1 2 100 -12772.9 5.13962
117      51.3013 1 2 100 -12772.9 1.51656
118      51.3013 1 2 100 -12772.9 4.17668
119      51.3013 1 2 100 -12772.9 0.553612
120      51.3013 1 2 100 -12772.9 3.21373
121      51.3013 1 2 100 -12772.9 5.87385
122      51.3013 1 2 100 -12772.9 2.25079
123      51.3013 1 2 100 -12772.9 4.91091
124      51.3013 1 2 100 -12772.9 1.28784
125      51.3013 1 2 100 -12772.9 3.94796
126      51.3013 1 2 100 -12772.9 0.3249
127      51.3013 1 2 100 -12772.9 2.98502
128      51.3013 1 2 100 -12772.9 5.64514
129      51.3013 1 2 100 -12772.9 2.02208
130      51.3013 1 2 100 -12772.9 4.6822
131      51.3013 1 2 100 -12772.9 1.05913
132      51.3013 1 2 100 -12772.9 3.71925
133      51.3013 1 2 100 -12772.9 0.096187
134      51.3013 1 2 100 -12772.9 2.75631
135      51.3013 1 2 100 -12772.9 5.41643
136      51.3013 1 2 100 -12772.9 1.79336
137      51.3013 1 2 100 -12772.9 4.45348
138      51.3013 1 2 100 -12772.9 0.830419
139      51.3013 1 2 100 -12772.9 3.49054
140      51.3013 1 2 100 -12772.9 6.15066
141      51.3013 1 2 100 -12772.9 2.52759
142      51.3013 1 2 100 -12772.9 5.18772
143      51.3013 1 2 100 -12772.9 1.56465
144      51.3013 1 2 100 -12772.9 4.22477
145      51.3013 1 2 100 -12772.9 0.601706
146      51.3013 1 2 100 -12772.9 3.26183
147      51.3013 1 2 100 -12772.9 5.92195
148      51.3013 1 2 100 -12772.9 2.29888
149      51.3013 1 2 100 -12772.9 4.959
150      51.3013 1 2 100 -12772.9 1.33594
151      51.3013 1 2 100 -12772.9 3.99606
152      51.3013 1 2 100 -12772.9 0.372993
153      51.3013 1 2 100 -12772.9 3.03311
154      51.3013 1 2 100 -12772.9 5.69323
155      51.3013 1 2 100 -12772.9 2.07017
156      51.3013 1 2 100 -12772.9 4.73029
157      51.3013 1 2 100 -12772.9 1.10722
158      51.3013 1 2 100 -12772.9 3.76735
159      51.3013 1 2 100 -12772.9 0.144281
160      51.3013 1 2 100 -12772.9 2.8044
161      51.3013 1 2 100 -6386.46 0
162      51.3013 1 2 100 -6386.46 1.33006
163      51.3013 1 2 100 -6386.46 2.66012
164      51.3013 1 2 100 -6386.46 3.99018
165      51.3013 1 2 100 -6386.46 5.32024
166      51.3013 1 2 100 -6386.46 0.367116
167      51.3013 1 2 100 -6386.46 1.69718
168      51.3013 1 2 100 -6386.46 3.02724
169      51.3013 1 2 100 -6386.46 4.3573
170      51.3013 1 2 100 -6386.46 5.68736
171      51.3013 1 2 100 -6386.46 0.734232
172      51.3013 1 2 100 -6386.46 2.06429
173      51.3013 1 2 100 -6386.46 3.39435
174      51.3013 1 2 100 -6386.46 4.72441
175      51.3013 1 2 100 -6386.46 6.05447
176      51.3013 1 2 100 -6386.46 1.10135
177      51.3013 1 2 100 -6386.46 2.43141
178      51.3013 1 2 100 -6386.46 3.76147
179      51.3013 1 2 100 -6386.46 5.09153
180      51.3013 1 2 100 -6386.46 0.138403
181      51.3013 1 2 100 -6386.46 1.46846
182      51.3013 1 2 100 -6386.46 2.79852
183      51.3013 1 2 100 -6386.46 4.12858
184      51.3013 1 2 100 -6386.46 5.45864
185      51.3013 1 2 100 -6386.46 0.505519
186      51.3013 1 2 100 -6386.46 1.83558
187      51.3013 1 2 100 -6386.46 3.16564
188      51.3013 1 2 100 -6386.46 4.4957
189      51.3013 1 2 100 -6386.46 5.82576
190      51.3013 1 2 100 -6386.46 0.872635
191      51.3013 1 2 100 -6386.46 2.2027
192      51.3013 1 2 100 -6386.46 3.53276
193      51.3013 1 2 100 -6386.46 4.86282
194      51.3013 1 2 100 -6386.46 6.19288
195      51.3013 1 2 100 -6386.46 1.23975
196      51.3013 1 2 100 -6386.46 2.56981
197      51.3013 1 2 100 -6386.46 3.89987
198      51.3013 1 2 100 -6386.46 5.22993
199      51.3013 1 2 100 -6386.46 0.276806
200      51.3013 1 2 100 -6386.46 1.60687
201      51.3013 1 2 100 -6386.46 2.93693
202      51.3013 1 2 100 -6386.46 4.26699
203      51.3013 1 2 100 -6386.46 5.59705
204      51.3013 1 2 100 -6386.46 0.643922
205      51.3013 1 2 100 -6386.46 1.97398
206      51.3013 1 2 100 -6386.46 3.30404
207      51.3013 1 2 100 -6386.46 4.6341
208      51.3013 1 2 100 -6386.46 5.96416
209      51.3013 1 2 100 -6386.46 1.01104
210      51.3013 1 2 100 -6386.46 2.3411
211      51.3013 1 2 100 -6386.46 3.67116
212      51.3013 1 2 100 -6386.46 5.00122
213      51.3013 1 2 100 -6386.46 0.0480935
214      51.3013 1 2 100 -6386.46 1.37815
215      51.3013 1 2 100 -6386.46 2.70821
216      51.3013 1 2 100 -6386.46 4.03827
217      51.3013 1 2 100 -6386.46 5.36833
218      51.3013 1 2 100 -6386.46 0.415209
219      51.3013 1 2 100 -6386.46 1.74527
220      51.3013 1 2 100 -6386.46 3.07533
221      51.3013 1 2 100 -6386.46 4.40539
222      51.3013 1 2 100 -6386.46 5.73545
223      51.3013 1 2 100 -6386.46 0.782325
224      51.3013 1 2 100 -6386.46 2.11239
225      51.3013 1 2 100 -6386.46 3.44245
226      51.3013 1 2 100 -6386.46 4.77251
227      51.3013 1 2 100 -6386.46 6.10257
228      51.3013 1 2 100 -6386.46 1.14944
229      51.3013 1 2 100 -6386.46 2.4795
230      51.3013 1 2 100 -6386.46 3.80956
231      51.3013 1 2 100 -6386.46 5.13962
232      51.3013 1 2 100 -6386.46 0.186497
233      51.3013 1 2 100 -6386.46 1.51656
234      51.3013 1 2 100 -6386.46 2.84662
235      51.3013 1 2 100 -6386.46 4.17668
236      51.3013 1 2 100 -6386.46 5.50674
237      51.3013 1 2 100 -6386.46 0.553612
238      51.3013 1 2 100 -6386.46 1.88367
239      51.3013 1 2 100 -6386.46 3.21373
240      51.3013 1 2 100 -6386.46 4.54379
241      51.3013 1 2 100 -5109.17 0
242      51.3013 1 2 100 -5109.17 2.32069
243      51.3013 1 2 100 -5109.17 4.64137
244      51.3013 1 2 100 -5109.17 0.67887
245      51.3013 1 2 100 -5109.17 2.99956
246      51.3013 1 2 100 -5109.17 5.32024
247      51.3013 1 2 100 -5109.17 1.35774
248      51.3013 1 2 100 -5109.17 3.67843
249      51.3013 1 2 100 -5109.17 5.99911
250      51.3013 1 2 100 -5109.17 2.03661
251      51.3013 1 2 100 -5109.17 4.3573
252      51.3013 1 2 100 -5109.17 0.394796
253      51.3013 1 2 100 -5109.17 2.71548
254      51.3013 1 2 100 -5109.17 5.03617
255      51.3013 1 2 100 -5109.17 1.07367
256      51.3013 1 2 100 -5109.17 3.39435
257      51.3013 1 2 100 -5109.17 5.71504
258      51.3013 1 2 100 -5109.17 1.75254
259      51.3013 1 2 100 -5109.17 4.07322
260      51.3013 1 2 100 -5109.17 0.110722
261      51.3013 1 2 100 -5109.17 2.43141
262      51.3013 1 2 100 -5109.17 4.75209
263      51.3013 1 2 100 -5109.17 0.789593
264      51.3013 1 2 100 -5109.17 3.11028
265      51.3013 1 2 100 -5109.17 5.43096
266      51.3013 1 2 100 -5109.17 1.46846
267      51.3013 1 2 100 -5109.17 3.78915
268      51.3013 1 2 100 -5109.17 6.10983
269      51.3013 1 2 100 -5109.17 2.14733
270      51.3013 1 2 100 -5109.17 4.46802
271      51.3013 1 2 100 -5109.17 0.505519
272      51.3013 1 2 100 -5109.17 2.8262
273      51.3013 1 2 100 -5109.17 5.14689
274      51.3013 1 2 100 -5109.17 1.18439
275      51.3013 1 2 100 -5109.17 3.50507
276      51.3013 1 2 100 -5109.17 5.82576
277      51.3013 1 2 100 -5109.17 1.86326
278      51.3013 1 2 100 -5109.17 4.18395
279      51.3013 1 2 100 -5109.17 0.221445
280      51.3013 1 2 100 -5109.17 2.54213
281      51.3013 1 2 100 -5109.17 4.86282
282      51.3013 1 2 100 -5109.17 0.900315
283      51.3013 1 2 100 -5109.17 3.221
284      51.3013 1 2 100 -5109.17 5.54169
285      51.3013 1 2 100 -5109.17 1.57919
286      51.3013 1 2 100 -5109.17 3.89987
287      51.3013 1 2 100 -5109.17 6.22056
288      51.3013 1 2 100 -5109.17 2.25806
289      51.3013 1 2 100 -5109.17 4.57874
290      51.3013 1 2 100 -5109.17 0.616241
291      51.3013 1 2 100 -5109.17 2.93693
292      51.3013 1 2 100 -5109.17 5.25761
293      51.3013 1 2 100 -5109.17 1.29511
294      51.3013 1 2 100 -5109.17 3.6158
295      51.3013 1 2 100 -5109.17 5.93648
296      51.3013 1 2 100 -5109.17 1.97398
297      51.3013 1 2 100 -5109.17 4.29467
298      51.3013 1 2 100 -5109.17 0.332167
299      51.3013 1 2 100 -5109.17 2.65285
300      51.3013 1 2 100 -5109.17 4.97354
301      51.3013 1 2 100 -5109.17 1.01104
302      51.3013 1 2 100 -5109.17 3.33172
303      51.3013 1 2 100 -5109.17 5.65241
304      51.3013 1 2 100 -5109.17 1.68991
305      51.3013 1 2 100 -5109.17 4.01059
306      51.3013 1 2 100 -5109.17 0.0480935
307      51.3013 1 2 100 -5109.17 2.36878
308      51.3013 1 2 100 -5109.17 4.68946
309      51.3013 1 2 100 -5109.17 0.726964
310      51.3013 1 2 100 -5109.17 3.04765
311      51.3013 1 2 100 -5109.17 5.36833
312      51.3013 1 2 100 -5109.17 1.40583
313      51.3013 1 2 100 -5109.17 3.72652
314      51.3013 1 2 100 -5109.17 6.0472
315      51.3013 1 2 100 -5109.17 2.0847
316      51.3013 1 2 100 -5109.17 4.40539
317      51.3013 1 2 100 -5109.17 0.44289
318      51.3013 1 2 100 -5109.17 2.76358
319      51.3013 1 2 100 -5109.17 5.08426
320      51.3013 1 2 100 -5109.17 1.12176
321      51.3013 1 2 100 -3831.88 0
322      51.3013 1 2 100 -3831.88 3.31131
323      51.3013 1 2 100 -3831.88 0.339435
324      51.3013 1 2 100 -3831.88 3.65075
325      51.3013 1 2 100 -3831.88 0.67887
326      51.3013 1 2 100 -3831.88 3.99018
327      51.3013 1 2 100 -3831.88 1.01831
328      51.3013 1 2 100 -3831.88 4.32962
329      51.3013 1 2 100 -3831.88 1.35774
330      51.3013 1 2 100 -3831.88 4.66905
331      51.3013 1 2 100 -3831.88 1.69718
332      51.3013 1 2 100 -3831.88 5.00849
333      51.3013 1 2 100 -3831.88 2.03661
334      51.3013 1 2 100 -3831.88 5.34792
335      51.3013 1 2 100 -3831.88 2.37605
336      51.3013 1 2 100 -3831.88 5.68736
337      51.3013 1 2 100 -3831.88 2.71548
338      51.3013 1 2 100 -3831.88 6.02679
339      51.3013 1 2 100 -3831.88 3.05492
340      51.3013 1 2 100 -3831.88 0.0830419
341      51.3013 1 2 100 -3831.88 3.39435
342      51.3013 1 2 100 -3831.88 0.422477
343      51.3013 1 2 100 -3831.88 3.73379
344      51.3013 1 2 100 -3831.88 0.761912
345      51.3013 1 2 100 -3831.88 4.07322
346      51.3013 1 2 100 -3831.88 1.10135
347      51.3013 1 2 100 -3831.88 4.41266
348      51.3013 1 2 100 -3831.88 1.44078
349      51.3013 1 2 100 -3831.88 4.75209
350      51.3013 1 2 100 -3831.88 1.78022
351      51.3013 1 2 100 -3831.88 5.09153
352      51.3013 1 2 100 -3831.88 2.11965
353      51.3013 1 2 100 -3831.88 5.43096
354      51.3013 1 2 100 -3831.88 2.45909
355      51.3013 1 2 100 -3831.88 5.7704
356      51.3013 1 2 100 -3831.88 2.79852
357      51.3013 1 2 100 -3831.88 6.10983
358      51.3013 1 2 100 -3831.88 3.13796
359      51.3013 1 2 100 -3831.88 0.166084
360      51.3013 1 2 100 -3831.88 3.47739
361      51.3013 1 2 100 -3831.88 0.505519
362      51.3013 1 2 100 -3831.88 3.81683
363      51.3013 1 2 100 -3831.88 0.844954
364      51.3013 1 2 100 -3831.88 4.15626
365      51.3013 1 2 100 -3831.88 1.18439
366      51.3013 1 2 100 -3831.88 4.4957
367      51.3013 1 2 100 -3831.88 1.52382
368      51.3013 1 2 100 -3831.88 4.83513
369      51.3013 1 2 100 -3831.88 1.86326
370      51.3013 1 2 100 -3831.88 5.17457
371      51.3013 1 2 100 -3831.88 2.2027
372      51.3013 1 2 100 -3831.88 5.51401
373      51.3013 1 2 100 -3831.88 2.54213
374      51.3013 1 2 100 -3831.88 5.85344
375      51.3013 1 2 100 -3831.88 2.88157
376      51.3013 1 2 100 -3831.88 6.19288
377      51.3013 1 2 100 -3831.88 3.221
378      51.3013 1 2 100 -3831.88 0.249126
379      51.3013 1 2 100 -3831.88 3.56044
380      51.3013 1 2 100 -3831.88 0.588561
381      51.3013 1 2 100 -3831.88 3.89987
382      51.3013 1 2 100 -3831.88 0.927996
383      51.3013 1 2 100 -3831.88 4.23931
384      51.3013 1 2 100 -3831.88 1.26743
385      51.3013 1 2 100 -3831.88 4.57874
386      51.3013 1 2 100 -3831.88 1.60687
387      51.3013 1 2 100 -3831.88 4.91818
388      51.3013 1 2 100 -3831.88 1.9463
389      51.3013 1 2 100 -3831.88 5.25761
390      51.3013 1 2 100 -3831.88 2.28574
391      51.3013 1 2 100 -3831.88 5.59705
392      51.3013 1 2 100 -3831.88 2.62517
393      51.3013 1 2 100 -3831.88 5.93648
394      51.3013 1 2 100 -3831.88 2.96461
395      51.3013 1 2 100 -3831.88 6.27592
396      51.3013 1 2 100 -3831.88 3.30404
397      51.3013 1 2 100 -3831.88 0.332167
398      51.3013 1 2 100 -3831.88 3.64348
399      51.3013 1 2 100 -3831.88 0.671603
400      51.3013 1 2 100 -3831.88 3.98291
401      51.3013 1 2 100 -2554.58 0
402      51.3013 1 2 100 -2554.58 4.30194
403      51.3013 1 2 100 -2554.58 2.32069
404      51.3013 1 2 100 -2554.58 0.339435
405      51.3013 1 2 100 -2554.58 4.64137
406      51.3013 1 2 100 -2554.58 2.66012
407      51.3013 1 2 100 -2554.58 0.67887
408      51.3013 1 2 100 -2554.58 4.98081
409      51.3013 1 2 100 -2554.58 2.99956
410      51.3013 1 2 100 -2554.58 1.01831
411      51.3013 1 2 100 -2554.58 5.32024
412      51.3013 1 2 100 -2554.58 3.33899
413      51.3013 1 2 100 -2554.58 1.35774
414      51.3013 1 2 100 -2554.58 5.65968
415      51.3013 1 2 100 -2554.58 3.67843
416      51.3013 1 2 100 -2554.58 1.69718
417      51.3013 1 2 100 -2554.58 5.99911
418      51.3013 1 2 100 -2554.58 4.01786
419      51.3013 1 2 100 -2554.58 2.03661
420      51.3013 1 2 100 -2554.58 0.0553612
421      51.3013 1 2 100 -2554.58 4.3573
422      51.3013 1 2 100 -2554.58 2.37605
423      51.3013 1 2 100 -2554.58 0.394796
424      51.3013 1 2 100 -2554.58 4.69673
425      51.3013 1 2 100 -2554.58 2.71548
426      51.3013 1 2 100 -2554.58 0.734232
427      51.3013 1 2 100 -2554.58 5.03617
428      51.3013 1 2 100 -2554.58 3.05492
429      51.3013 1 2 100 -2554.58 1.07367
430      51.3013 1 2 100 -2554.58 5.3756
431      51.3013 1 2 100 -2554.58 3.39435
432      51.3013 1 2 100 -2554.58 1.4131
433      51.3013 1 2 100 -2554.58 5.71504
434      51.3013 1 2 100 -2554.58 3.73379
435      51.3013 1 2 100 -2554.58 1.75254
436      51.3013 1 2 100 -2554.58 6.05447
437      51.3013 1 2 100 -2554.58 4.07322
438      51.3013 1 2 100 -2554.58 2.09197
439      51.3013 1 2 100 -2554.58 0.110722
440      51.3013 1 2 100 -2554.58 4.41266
441      51.3013 1 2 100 -2554.58 2.43141
442      51.3013 1 2 100 -2554.58 0.450158
443      51.3013 1 2 100 -2554.58 4.75209
444      51.3013 1 2 100 -2554.58 2.77084
445      51.3013 1 2 100 -2554.58 0.789593
446      51.3013 1 2 100 -2554.58 5.09153
447      51.3013 1 2 100 -2554.58 3.11028
448      51.3013 1 2 100 -2554.58 1.12903
449      51.3013 1 2 100 -2554.58 5.43096
450      51.3013 1 2 100 -2554.58 3.44971
451      51.3013 1 2 100 -2554.58 1.46846
452      51.3013 1 2 100 -2554.58 5.7704
453      51.3013 1 2 100 -2554.58 3.78915
454      51.3013 1 2 100 -2554.58 1.8079
455      51.3013 1 2 100 -2554.58 6.10983
456      51.3013 1 2 100 -2554.58 4.12858
457      51.3013 1 2 100 -2554.58 2.14733
458      51.3013 1 2 100 -2554.58 0.166084
459      51.3013 1 2 100 -2554.58 4.46802
460      51.3013 1 2 100 -2554.58 2.48677
461      51.3013 1 2 100 -2554.58 0.505519
462      51.3013 1 2 100 -2554.58 4.80745
463      51.3013 1 2 100 -2554.58 2.8262
464      51.3013 1 2 100 -2554.58 0.844954
465      51.3013 1 2 100 -2554.58 5.14689
466      51.3013 1 2 100 -2554.58 3.16564
467      51.3013 1 2 100 -2554.58 1.18439
468      51.3013 1 2 100 -2554.58 5.48632
469      51.3013 1 2 100 -2554.58 3.50507
470      51.3013 1 2 100 -2554.58 1.52382
471      51.3013 1 2 100 -2554.58 5.82576
472      51.3013 1 2 100 -2554.58 3.84451
473      51.3013 1 2 100 -2554.58 1.86326
474      51.3013 1 2 100 -2554.58 6.1652
475      51.3013 1 2 100 -2554.58 4.18395
476      51.3013 1 2 100 -2554.58 2.2027
477      51.3013 1 2 100 -2554.58 0.221445
478      51.3013 1 2 100 -2554.58 4.52338
