# Pulseq sequence file
# Created by MATLAB mr toolbox

# Created for Pulseq-CEST
# https://pulseq-cest.github.io/
# Created by: Moritz Fabian
# Created at: 07-Jun-2024 14:26:46

[VERSION]
major 1
minor 3
revision 1

[DEFINITIONS]
B0 6.9809 
B1cwpe 3.61756821 
DCsat 0.904977376 
M0_offset -300 
Trec 3 
Trec_M0 12 
Tsat 0.6567 
n_pulses 10 
num_meas 9 
offsets_ppm -300 -3.75 -3 -2.25 -1.5 1.5 2.25 3 3.75 
seq_id_string comprehensive_CEST_7T_CP_B1_3p10uT 
td 0.0063 
tp 0.06 

# Format of blocks:
#  #  D RF  GX  GY  GZ ADC EXT
[BLOCKS]
  1  1  0   0   0   0  0  0
  2  0  1   0   0   0  0  0
  3  2  0   0   0   0  0  0
  4  0  2   0   0   0  0  0
  5  2  0   0   0   0  0  0
  6  0  3   0   0   0  0  0
  7  2  0   0   0   0  0  0
  8  0  4   0   0   0  0  0
  9  2  0   0   0   0  0  0
 10  0  5   0   0   0  0  0
 11  2  0   0   0   0  0  0
 12  0  6   0   0   0  0  0
 13  2  0   0   0   0  0  0
 14  0  7   0   0   0  0  0
 15  2  0   0   0   0  0  0
 16  0  8   0   0   0  0  0
 17  2  0   0   0   0  0  0
 18  0  9   0   0   0  0  0
 19  2  0   0   0   0  0  0
 20  0 10   0   0   0  0  0
 21  0  0   1   1   1  0  0
 22  0  0   0   0   0  1  0
 23  3  0   0   0   0  0  0
 24  0 11   0   0   0  0  0
 25  2  0   0   0   0  0  0
 26  0 12   0   0   0  0  0
 27  2  0   0   0   0  0  0
 28  0 13   0   0   0  0  0
 29  2  0   0   0   0  0  0
 30  0 14   0   0   0  0  0
 31  2  0   0   0   0  0  0
 32  0 15   0   0   0  0  0
 33  2  0   0   0   0  0  0
 34  0 16   0   0   0  0  0
 35  2  0   0   0   0  0  0
 36  0 17   0   0   0  0  0
 37  2  0   0   0   0  0  0
 38  0 18   0   0   0  0  0
 39  2  0   0   0   0  0  0
 40  0 19   0   0   0  0  0
 41  2  0   0   0   0  0  0
 42  0 20   0   0   0  0  0
 43  0  0   1   1   1  0  0
 44  0  0   0   0   0  1  0
 45  3  0   0   0   0  0  0
 46  0 21   0   0   0  0  0
 47  2  0   0   0   0  0  0
 48  0 22   0   0   0  0  0
 49  2  0   0   0   0  0  0
 50  0 23   0   0   0  0  0
 51  2  0   0   0   0  0  0
 52  0 24   0   0   0  0  0
 53  2  0   0   0   0  0  0
 54  0 25   0   0   0  0  0
 55  2  0   0   0   0  0  0
 56  0 26   0   0   0  0  0
 57  2  0   0   0   0  0  0
 58  0 27   0   0   0  0  0
 59  2  0   0   0   0  0  0
 60  0 28   0   0   0  0  0
 61  2  0   0   0   0  0  0
 62  0 29   0   0   0  0  0
 63  2  0   0   0   0  0  0
 64  0 30   0   0   0  0  0
 65  0  0   1   1   1  0  0
 66  0  0   0   0   0  1  0
 67  3  0   0   0   0  0  0
 68  0 31   0   0   0  0  0
 69  2  0   0   0   0  0  0
 70  0 32   0   0   0  0  0
 71  2  0   0   0   0  0  0
 72  0 33   0   0   0  0  0
 73  2  0   0   0   0  0  0
 74  0 34   0   0   0  0  0
 75  2  0   0   0   0  0  0
 76  0 35   0   0   0  0  0
 77  2  0   0   0   0  0  0
 78  0 36   0   0   0  0  0
 79  2  0   0   0   0  0  0
 80  0 37   0   0   0  0  0
 81  2  0   0   0   0  0  0
 82  0 38   0   0   0  0  0
 83  2  0   0   0   0  0  0
 84  0 39   0   0   0  0  0
 85  2  0   0   0   0  0  0
 86  0 40   0   0   0  0  0
 87  0  0   1   1   1  0  0
 88  0  0   0   0   0  1  0
 89  3  0   0   0   0  0  0
 90  0 41   0   0   0  0  0
 91  2  0   0   0   0  0  0
 92  0 42   0   0   0  0  0
 93  2  0   0   0   0  0  0
 94  0 43   0   0   0  0  0
 95  2  0   0   0   0  0  0
 96  0 44   0   0   0  0  0
 97  2  0   0   0   0  0  0
 98  0 45   0   0   0  0  0
 99  2  0   0   0   0  0  0
100  0 46   0   0   0  0  0
101  2  0   0   0   0  0  0
102  0 47   0   0   0  0  0
103  2  0   0   0   0  0  0
104  0 48   0   0   0  0  0
105  2  0   0   0   0  0  0
106  0 49   0   0   0  0  0
107  2  0   0   0   0  0  0
108  0 50   0   0   0  0  0
109  0  0   1   1   1  0  0
110  0  0   0   0   0  1  0
111  3  0   0   0   0  0  0
112  0 51   0   0   0  0  0
113  2  0   0   0   0  0  0
114  0 52   0   0   0  0  0
115  2  0   0   0   0  0  0
116  0 53   0   0   0  0  0
117  2  0   0   0   0  0  0
118  0 54   0   0   0  0  0
119  2  0   0   0   0  0  0
120  0 55   0   0   0  0  0
121  2  0   0   0   0  0  0
122  0 56   0   0   0  0  0
123  2  0   0   0   0  0  0
124  0 57   0   0   0  0  0
125  2  0   0   0   0  0  0
126  0 58   0   0   0  0  0
127  2  0   0   0   0  0  0
128  0 59   0   0   0  0  0
129  2  0   0   0   0  0  0
130  0 60   0   0   0  0  0
131  0  0   1   1   1  0  0
132  0  0   0   0   0  1  0
133  3  0   0   0   0  0  0
134  0 61   0   0   0  0  0
135  2  0   0   0   0  0  0
136  0 62   0   0   0  0  0
137  2  0   0   0   0  0  0
138  0 63   0   0   0  0  0
139  2  0   0   0   0  0  0
140  0 64   0   0   0  0  0
141  2  0   0   0   0  0  0
142  0 65   0   0   0  0  0
143  2  0   0   0   0  0  0
144  0 66   0   0   0  0  0
145  2  0   0   0   0  0  0
146  0 67   0   0   0  0  0
147  2  0   0   0   0  0  0
148  0 68   0   0   0  0  0
149  2  0   0   0   0  0  0
150  0 69   0   0   0  0  0
151  2  0   0   0   0  0  0
152  0 70   0   0   0  0  0
153  0  0   1   1   1  0  0
154  0  0   0   0   0  1  0
155  3  0   0   0   0  0  0
156  0 71   0   0   0  0  0
157  2  0   0   0   0  0  0
158  0 72   0   0   0  0  0
159  2  0   0   0   0  0  0
160  0 73   0   0   0  0  0
161  2  0   0   0   0  0  0
162  0 74   0   0   0  0  0
163  2  0   0   0   0  0  0
164  0 75   0   0   0  0  0
165  2  0   0   0   0  0  0
166  0 76   0   0   0  0  0
167  2  0   0   0   0  0  0
168  0 77   0   0   0  0  0
169  2  0   0   0   0  0  0
170  0 78   0   0   0  0  0
171  2  0   0   0   0  0  0
172  0 79   0   0   0  0  0
173  2  0   0   0   0  0  0
174  0 80   0   0   0  0  0
175  0  0   1   1   1  0  0
176  0  0   0   0   0  1  0
177  3  0   0   0   0  0  0
178  0 81   0   0   0  0  0
179  2  0   0   0   0  0  0
180  0 82   0   0   0  0  0
181  2  0   0   0   0  0  0
182  0 83   0   0   0  0  0
183  2  0   0   0   0  0  0
184  0 84   0   0   0  0  0
185  2  0   0   0   0  0  0
186  0 85   0   0   0  0  0
187  2  0   0   0   0  0  0
188  0 86   0   0   0  0  0
189  2  0   0   0   0  0  0
190  0 87   0   0   0  0  0
191  2  0   0   0   0  0  0
192  0 88   0   0   0  0  0
193  2  0   0   0   0  0  0
194  0 89   0   0   0  0  0
195  2  0   0   0   0  0  0
196  0 90   0   0   0  0  0
197  0  0   1   1   1  0  0
198  0  0   0   0   0  1  0
199  3  0   0   0   0  0  0

# Format of RF events:
# id amplitude mag_id phase_id delay freq phase
# ..        Hz   ....     ....    us   Hz   rad
[RF]
1      265.049 1 2 100 -89166.5 0
2      265.049 1 2 100 -89166.5 0.631666
3      265.049 1 2 100 -89166.5 1.26333
4      265.049 1 2 100 -89166.5 1.895
5      265.049 1 2 100 -89166.5 2.52666
6      265.049 1 2 100 -89166.5 3.15833
7      265.049 1 2 100 -89166.5 3.79
8      265.049 1 2 100 -89166.5 4.42166
9      265.049 1 2 100 -89166.5 5.05333
10      265.049 1 2 100 -89166.5 5.685
11      265.049 1 2 100 -1114.58 0
12      265.049 1 2 100 -1114.58 0.793294
13      265.049 1 2 100 -1114.58 1.58659
14      265.049 1 2 100 -1114.58 2.37988
15      265.049 1 2 100 -1114.58 3.17318
16      265.049 1 2 100 -1114.58 3.96647
17      265.049 1 2 100 -1114.58 4.75976
18      265.049 1 2 100 -1114.58 5.55306
19      265.049 1 2 100 -1114.58 0.0631666
20      265.049 1 2 100 -1114.58 0.856461
21      265.049 1 2 100 -891.665 0
22      265.049 1 2 100 -891.665 3.14791
23      265.049 1 2 100 -891.665 0.0126333
24      265.049 1 2 100 -891.665 3.16054
25      265.049 1 2 100 -891.665 0.0252666
26      265.049 1 2 100 -891.665 3.17318
27      265.049 1 2 100 -891.665 0.0379
28      265.049 1 2 100 -891.665 3.18581
29      265.049 1 2 100 -891.665 0.0505333
30      265.049 1 2 100 -891.665 3.19844
31      265.049 1 2 100 -668.749 0
32      265.049 1 2 100 -668.749 5.50252
33      265.049 1 2 100 -668.749 4.72186
34      265.049 1 2 100 -668.749 3.9412
35      265.049 1 2 100 -668.749 3.16054
36      265.049 1 2 100 -668.749 2.37988
37      265.049 1 2 100 -668.749 1.59922
38      265.049 1 2 100 -668.749 0.818561
39      265.049 1 2 100 -668.749 0.0379
40      265.049 1 2 100 -668.749 5.54042
41      265.049 1 2 100 -445.832 0
42      265.049 1 2 100 -445.832 1.57395
43      265.049 1 2 100 -445.832 3.14791
44      265.049 1 2 100 -445.832 4.72186
45      265.049 1 2 100 -445.832 0.0126333
46      265.049 1 2 100 -445.832 1.58659
47      265.049 1 2 100 -445.832 3.16054
48      265.049 1 2 100 -445.832 4.7345
49      265.049 1 2 100 -445.832 0.0252666
50      265.049 1 2 100 -445.832 1.59922
51      265.049 1 2 100 445.832 0
52      265.049 1 2 100 445.832 4.70923
53      265.049 1 2 100 445.832 3.13528
54      265.049 1 2 100 445.832 1.56132
55      265.049 1 2 100 445.832 6.27055
56      265.049 1 2 100 445.832 4.6966
57      265.049 1 2 100 445.832 3.12264
58      265.049 1 2 100 445.832 1.54869
59      265.049 1 2 100 445.832 6.25792
60      265.049 1 2 100 445.832 4.68396
61      265.049 1 2 100 668.749 0
62      265.049 1 2 100 668.749 0.780661
63      265.049 1 2 100 668.749 1.56132
64      265.049 1 2 100 668.749 2.34198
65      265.049 1 2 100 668.749 3.12264
66      265.049 1 2 100 668.749 3.9033
67      265.049 1 2 100 668.749 4.68396
68      265.049 1 2 100 668.749 5.46462
69      265.049 1 2 100 668.749 6.24529
70      265.049 1 2 100 668.749 0.742761
71      265.049 1 2 100 891.665 0
72      265.049 1 2 100 891.665 3.13528
73      265.049 1 2 100 891.665 6.27055
74      265.049 1 2 100 891.665 3.12264
75      265.049 1 2 100 891.665 6.25792
76      265.049 1 2 100 891.665 3.11001
77      265.049 1 2 100 891.665 6.24529
78      265.049 1 2 100 891.665 3.09738
79      265.049 1 2 100 891.665 6.23265
80      265.049 1 2 100 891.665 3.08474
81      265.049 1 2 100 1114.58 0
82      265.049 1 2 100 1114.58 5.48989
83      265.049 1 2 100 1114.58 4.6966
84      265.049 1 2 100 1114.58 3.9033
85      265.049 1 2 100 1114.58 3.11001
86      265.049 1 2 100 1114.58 2.31672
87      265.049 1 2 100 1114.58 1.52342
88      265.049 1 2 100 1114.58 0.730127
89      265.049 1 2 100 1114.58 6.22002
90      265.049 1 2 100 1114.58 5.42672

# Format of trapezoid gradients:
# id amplitude rise flat fall delay
# ..      Hz/m   us   us   us    us
[TRAP]
 1  1.36244e+06 1000 4500 1000   0

# Format of ADC events:
# id num dwell delay freq phase
# ..  ..    ns    us   Hz   rad
[ADC]
1 1 1000000 0 0 0

# Format of delays:
# id delay (us)
[DELAYS]
1 12000000
2 6300
3 3000000

# Sequence Shapes
[SHAPES]

shape_id 1
num_samples 60030
0
0
99
0.0001081
0
0
197
0.0003222
0
0
198
0.0005366
0
0
198
0.0007509
0
0
197
0.0009651
0
0
198
0.0011792
0
0
198
0.0013929
0
0
197
0.0016064
0
0
198
0.0018194
0
0
198
0.0020318
0
0
197
0.0022435
0
0
198
0.0024545
0
0
198
0.0026646
0
0
197
0.0028737
0
0
198
0.0030819
0
0
198
0.0032888
0
0
197
0.0034946
0
0
198
0.0036989
0
0
198
0.0039019
0
0
197
0.0041032
0
0
198
0.0043031
0
0
198
0.0045012
0
0
197
0.0046974
0
0
198
0.0048918
0
0
198
0.0050842
0
0
197
0.0052746
0
0
198
0.0054626
0
0
198
0.0056486
0
0
197
0.0058321
0
0
198
0.0060132
0
0
198
0.0061918
0
0
197
0.0063678
0
0
198
0.0065412
0
0
198
0.0067118
0
0
197
0.0068795
0
0
198
0.0070443
0
0
198
0.0072061
0
0
197
0.0073649
0
0
198
0.0075205
0
0
198
0.0076728
0
0
197
0.007822
0
0
198
0.0079676
0
0
198
0.00811
0
0
197
0.0082488
0
0
198
0.008384
0
0
198
0.0085155
0
0
197
0.0086435
0
0
198
0.0087677
0
0
198
0.0088879
0
0
197
0.0090045
0
0
198
0.009117
0
0
198
0.0092255
0
0
197
0.0093301
0
0
198
0.0094305
0
0
198
0.0095268
0
0
197
0.009619
0
0
198
0.0097069
0
0
198
0.0097905
0
0
197
0.0098699
0
0
198
0.0099448
0
0
198
0.0100155
0
0
197
0.0100816
0
0
198
0.0101434
0
0
198
0.0102006
0
0
197
0.0102534
0
0
198
0.0103016
0
0
198
0.0103453
0
0
197
0.0103843
0
0
198
0.0104187
0
0
198
0.0104486
0
0
197
0.0104738
0
0
198
0.0104943
0
0
198
0.0105102
0
0
197
0.0105214
0
0
198
0.0105279
0
0
197
0.0105298
0
0
198
0.0105268
0
0
198
0.0105193
0
0
197
0.0105071
0
0
198
0.0104901
0
0
198
0.0104684
0
0
197
0.0104422
0
0
198
0.0104112
0
0
198
0.0103755
0
0
197
0.0103353
0
0
198
0.0102904
0
0
198
0.0102409
0
0
197
0.0101868
0
0
198
0.0101281
0
0
198
0.0100649
0
0
197
0.0099973
0
0
198
0.009925
0
0
198
0.0098484
0
0
197
0.0097673
0
0
198
0.0096818
0
0
198
0.0095921
0
0
197
0.0094979
0
0
198
0.0093995
0
0
198
0.0092969
0
0
197
0.0091901
0
0
198
0.0090792
0
0
198
0.0089642
0
0
197
0.0088451
0
0
198
0.0087221
0
0
198
0.0085952
0
0
197
0.0084643
0
0
198
0.0083296
0
0
198
0.0081913
0
0
197
0.0080491
0
0
198
0.0079035
0
0
198
0.0077541
0
0
197
0.0076014
0
0
198
0.0074451
0
0
198
0.0072856
0
0
197
0.0071227
0
0
198
0.0069567
0
0
198
0.0067874
0
0
197
0.0066151
0
0
198
0.0064399
0
0
198
0.0062617
0
0
197
0.0060806
0
0
198
0.0058969
0
0
198
0.0057105
0
0
197
0.0055215
0
0
198
0.00533
0
0
198
0.0051361
0
0
197
0.0049399
0
0
198
0.0047414
0
0
198
0.0045407
0
0
197
0.0043382
0
0
198
0.0041335
0
0
198
0.003927
0
0
197
0.0037187
0
0
198
0.0035088
0
0
198
0.0032972
0
0
197
0.0030842
0
0
198
0.0028698
0
0
198
0.002654
0
0
197
0.0024372
0
0
198
0.0022191
0
0
198
0.002
0
0
197
0.0017801
0
0
198
0.0015594
0
0
198
0.0013379
0
0
197
0.0011159
0
0
198
0.0008933
0
0
198
0.0006703
0
0
197
0.000447
0
0
198
0.0002236
0
0
398
-0.0002236
0
0
198
-0.000447
0
0
197
-0.0006703
0
0
198
-0.0008933
0
0
198
-0.0011159
0
0
197
-0.0013379
0
0
198
-0.0015594
0
0
198
-0.0017801
0
0
197
-0.002
0
0
198
-0.0022191
0
0
198
-0.0024372
0
0
197
-0.002654
0
0
198
-0.0028698
0
0
198
-0.0030842
0
0
197
-0.0032972
0
0
198
-0.0035088
0
0
198
-0.0037187
0
0
197
-0.003927
0
0
198
-0.0041335
0
0
198
-0.0043382
0
0
197
-0.0045407
0
0
198
-0.0047414
0
0
198
-0.0049399
0
0
197
-0.0051361
0
0
198
-0.00533
0
0
198
-0.0055215
0
0
197
-0.0057105
0
0
198
-0.0058969
0
0
198
-0.0060806
0
0
197
-0.0062617
0
0
198
-0.0064399
0
0
198
-0.0066151
0
0
197
-0.0067874
0
0
198
-0.0069567
0
0
198
-0.0071227
0
0
197
-0.0072856
0
0
198
-0.0074451
0
0
198
-0.0076014
0
0
197
-0.0077541
0
0
198
-0.0079035
0
0
198
-0.0080491
0
0
197
-0.0081913
0
0
198
-0.0083296
0
0
198
-0.0084643
0
0
197
-0.0085952
0
0
198
-0.0087221
0
0
198
-0.0088451
0
0
197
-0.0089642
0
0
198
-0.0090792
0
0
198
-0.0091901
0
0
197
-0.0092969
0
0
198
-0.0093995
0
0
198
-0.0094979
0
0
197
-0.0095921
0
0
198
-0.0096818
0
0
198
-0.0097673
0
0
197
-0.0098484
0
0
198
-0.009925
0
0
198
-0.0099973
0
0
197
-0.0100649
0
0
198
-0.0101281
0
0
198
-0.0101868
0
0
197
-0.0102409
0
0
198
-0.0102904
0
0
198
-0.0103353
0
0
197
-0.0103755
0
0
198
-0.0104112
0
0
198
-0.0104422
0
0
197
-0.0104684
0
0
198
-0.0104901
0
0
198
-0.0105071
0
0
197
-0.0105193
0
0
198
-0.0105268
0
0
198
-0.0105298
0
0
197
-0.0105279
0
0
198
-0.0105214
0
0
197
-0.0105102
0
0
198
-0.0104943
0
0
198
-0.0104738
0
0
197
-0.0104486
0
0
198
-0.0104187
0
0
198
-0.0103843
0
0
197
-0.0103453
0
0
198
-0.0103016
0
0
198
-0.0102534
0
0
197
-0.0102006
0
0
198
-0.0101434
0
0
198
-0.0100816
0
0
197
-0.0100155
0
0
198
-0.0099448
0
0
198
-0.0098699
0
0
197
-0.0097905
0
0
198
-0.0097069
0
0
198
-0.009619
0
0
197
-0.0095268
0
0
198
-0.0094305
0
0
198
-0.0093301
0
0
197
-0.0092255
0
0
198
-0.009117
0
0
198
-0.0090045
0
0
197
-0.0088879
0
0
198
-0.0087677
0
0
198
-0.0086435
0
0
197
-0.0085155
0
0
198
-0.008384
0
0
198
-0.0082488
0
0
197
-0.00811
0
0
198
-0.0079676
0
0
198
-0.007822
0
0
197
-0.0076728
0
0
198
-0.0075205
0
0
198
-0.0073649
0
0
197
-0.0072061
0
0
198
-0.0070443
0
0
198
-0.0068795
0
0
197
-0.0067118
0
0
198
-0.0065412
0
0
198
-0.0063678
0
0
197
-0.0061918
0
0
198
-0.0060132
0
0
198
-0.0058321
0
0
197
-0.0056486
0
0
198
-0.0054626
0
0
198
-0.0052746
0
0
197
-0.0050842
0
0
198
-0.0048918
0
0
198
-0.0046974
0
0
197
-0.0045012
0
0
198
-0.0043031
0
0
198
-0.0041032
0
0
197
-0.0039019
0
0
198
-0.0036989
0
0
198
-0.0034946
0
0
197
-0.0032888
0
0
198
-0.0030819
0
0
198
-0.0028737
0
0
197
-0.0026646
0
0
198
-0.0024545
0
0
198
-0.0022435
0
0
197
-0.0020318
0
0
198
-0.0018194
0
0
198
-0.0016064
0
0
197
-0.0013929
0
0
198
-0.0011792
0
0
198
-0.0009651
0
0
197
-0.0007509
0
0
198
-0.0005366
0
0
198
-0.0003222
0
0
197
-0.0001081
0
0
129

shape_id 2
num_samples 60030
0
0
60028

