# Pulseq sequence file
# Created by MATLAB mr toolbox

# Created for Pulseq-CEST
# https://pulseq-cest.github.io/
# Created by: Moritz Fabian
# Created at: 07-Jun-2024 14:25:49

[VERSION]
major 1
minor 3
revision 1

[DEFINITIONS]
B0 6.9809 
B1cwpe 0.954678261 
DCsat 0.605678233 
M0_offset -300 
Trec 1 
Trec_M0 12 
Tsat 3.0332 
n_pulses 120 
num_meas 55 
offsets_ppm -300 -100 -50 -20 -12 -9 -7.25 -6.25 -5.5 -4.7 -4 -3.3 -2.7 -2 -1.7 -1.5 -1.1 -0.9 -0.6 -0.4 0 0.4 0.6 0.95 1.1 1.25 1.4 1.55 1.7 1.85 2 2.15 2.3 2.45 2.6 2.75 2.9 3.05 3.2 3.35 3.5 3.65 3.8 3.95 4.1 4.25 4.4 4.7 5.25 6.25 8 12 20 50 100 
seq_id_string comprehensive_CEST_7T_CP_B1_1p00uT 
td 0.01 
tp 0.01536 

# Format of blocks:
#  #  D RF  GX  GY  GZ ADC EXT
[BLOCKS]
    1  1  0   0   0   0  0  0
    2  0  1   0   0   0  0  0
    3  2  0   0   0   0  0  0
    4  0  2   0   0   0  0  0
    5  2  0   0   0   0  0  0
    6  0  3   0   0   0  0  0
    7  2  0   0   0   0  0  0
    8  0  4   0   0   0  0  0
    9  2  0   0   0   0  0  0
   10  0  5   0   0   0  0  0
   11  2  0   0   0   0  0  0
   12  0  6   0   0   0  0  0
   13  2  0   0   0   0  0  0
   14  0  7   0   0   0  0  0
   15  2  0   0   0   0  0  0
   16  0  8   0   0   0  0  0
   17  2  0   0   0   0  0  0
   18  0  9   0   0   0  0  0
   19  2  0   0   0   0  0  0
   20  0 10   0   0   0  0  0
   21  2  0   0   0   0  0  0
   22  0 11   0   0   0  0  0
   23  2  0   0   0   0  0  0
   24  0 12   0   0   0  0  0
   25  2  0   0   0   0  0  0
   26  0 13   0   0   0  0  0
   27  2  0   0   0   0  0  0
   28  0 14   0   0   0  0  0
   29  2  0   0   0   0  0  0
   30  0 15   0   0   0  0  0
   31  2  0   0   0   0  0  0
   32  0 16   0   0   0  0  0
   33  2  0   0   0   0  0  0
   34  0 17   0   0   0  0  0
   35  2  0   0   0   0  0  0
   36  0 18   0   0   0  0  0
   37  2  0   0   0   0  0  0
   38  0 19   0   0   0  0  0
   39  2  0   0   0   0  0  0
   40  0 20   0   0   0  0  0
   41  2  0   0   0   0  0  0
   42  0 21   0   0   0  0  0
   43  2  0   0   0   0  0  0
   44  0 22   0   0   0  0  0
   45  2  0   0   0   0  0  0
   46  0 23   0   0   0  0  0
   47  2  0   0   0   0  0  0
   48  0 24   0   0   0  0  0
   49  2  0   0   0   0  0  0
   50  0 25   0   0   0  0  0
   51  2  0   0   0   0  0  0
   52  0 26   0   0   0  0  0
   53  2  0   0   0   0  0  0
   54  0 27   0   0   0  0  0
   55  2  0   0   0   0  0  0
   56  0 28   0   0   0  0  0
   57  2  0   0   0   0  0  0
   58  0 29   0   0   0  0  0
   59  2  0   0   0   0  0  0
   60  0 30   0   0   0  0  0
   61  2  0   0   0   0  0  0
   62  0 31   0   0   0  0  0
   63  2  0   0   0   0  0  0
   64  0 32   0   0   0  0  0
   65  2  0   0   0   0  0  0
   66  0 33   0   0   0  0  0
   67  2  0   0   0   0  0  0
   68  0 34   0   0   0  0  0
   69  2  0   0   0   0  0  0
   70  0 35   0   0   0  0  0
   71  2  0   0   0   0  0  0
   72  0 36   0   0   0  0  0
   73  2  0   0   0   0  0  0
   74  0 37   0   0   0  0  0
   75  2  0   0   0   0  0  0
   76  0 38   0   0   0  0  0
   77  2  0   0   0   0  0  0
   78  0 39   0   0   0  0  0
   79  2  0   0   0   0  0  0
   80  0 40   0   0   0  0  0
   81  2  0   0   0   0  0  0
   82  0 41   0   0   0  0  0
   83  2  0   0   0   0  0  0
   84  0 42   0   0   0  0  0
   85  2  0   0   0   0  0  0
   86  0 43   0   0   0  0  0
   87  2  0   0   0   0  0  0
   88  0 44   0   0   0  0  0
   89  2  0   0   0   0  0  0
   90  0 45   0   0   0  0  0
   91  2  0   0   0   0  0  0
   92  0 46   0   0   0  0  0
   93  2  0   0   0   0  0  0
   94  0 47   0   0   0  0  0
   95  2  0   0   0   0  0  0
   96  0 48   0   0   0  0  0
   97  2  0   0   0   0  0  0
   98  0 49   0   0   0  0  0
   99  2  0   0   0   0  0  0
  100  0 50   0   0   0  0  0
  101  2  0   0   0   0  0  0
  102  0 51   0   0   0  0  0
  103  2  0   0   0   0  0  0
  104  0 52   0   0   0  0  0
  105  2  0   0   0   0  0  0
  106  0 53   0   0   0  0  0
  107  2  0   0   0   0  0  0
  108  0 54   0   0   0  0  0
  109  2  0   0   0   0  0  0
  110  0 55   0   0   0  0  0
  111  2  0   0   0   0  0  0
  112  0 56   0   0   0  0  0
  113  2  0   0   0   0  0  0
  114  0 57   0   0   0  0  0
  115  2  0   0   0   0  0  0
  116  0 58   0   0   0  0  0
  117  2  0   0   0   0  0  0
  118  0 59   0   0   0  0  0
  119  2  0   0   0   0  0  0
  120  0 60   0   0   0  0  0
  121  2  0   0   0   0  0  0
  122  0 61   0   0   0  0  0
  123  2  0   0   0   0  0  0
  124  0 62   0   0   0  0  0
  125  2  0   0   0   0  0  0
  126  0 63   0   0   0  0  0
  127  2  0   0   0   0  0  0
  128  0 64   0   0   0  0  0
  129  2  0   0   0   0  0  0
  130  0 65   0   0   0  0  0
  131  2  0   0   0   0  0  0
  132  0 66   0   0   0  0  0
  133  2  0   0   0   0  0  0
  134  0 67   0   0   0  0  0
  135  2  0   0   0   0  0  0
  136  0 68   0   0   0  0  0
  137  2  0   0   0   0  0  0
  138  0 69   0   0   0  0  0
  139  2  0   0   0   0  0  0
  140  0 70   0   0   0  0  0
  141  2  0   0   0   0  0  0
  142  0 71   0   0   0  0  0
  143  2  0   0   0   0  0  0
  144  0 72   0   0   0  0  0
  145  2  0   0   0   0  0  0
  146  0 73   0   0   0  0  0
  147  2  0   0   0   0  0  0
  148  0 74   0   0   0  0  0
  149  2  0   0   0   0  0  0
  150  0 75   0   0   0  0  0
  151  2  0   0   0   0  0  0
  152  0 76   0   0   0  0  0
  153  2  0   0   0   0  0  0
  154  0 77   0   0   0  0  0
  155  2  0   0   0   0  0  0
  156  0 78   0   0   0  0  0
  157  2  0   0   0   0  0  0
  158  0 79   0   0   0  0  0
  159  2  0   0   0   0  0  0
  160  0 80   0   0   0  0  0
  161  2  0   0   0   0  0  0
  162  0 81   0   0   0  0  0
  163  2  0   0   0   0  0  0
  164  0 82   0   0   0  0  0
  165  2  0   0   0   0  0  0
  166  0 83   0   0   0  0  0
  167  2  0   0   0   0  0  0
  168  0 84   0   0   0  0  0
  169  2  0   0   0   0  0  0
  170  0 85   0   0   0  0  0
  171  2  0   0   0   0  0  0
  172  0 86   0   0   0  0  0
  173  2  0   0   0   0  0  0
  174  0 87   0   0   0  0  0
  175  2  0   0   0   0  0  0
  176  0 88   0   0   0  0  0
  177  2  0   0   0   0  0  0
  178  0 89   0   0   0  0  0
  179  2  0   0   0   0  0  0
  180  0 90   0   0   0  0  0
  181  2  0   0   0   0  0  0
  182  0 91   0   0   0  0  0
  183  2  0   0   0   0  0  0
  184  0 92   0   0   0  0  0
  185  2  0   0   0   0  0  0
  186  0 93   0   0   0  0  0
  187  2  0   0   0   0  0  0
  188  0 94   0   0   0  0  0
  189  2  0   0   0   0  0  0
  190  0 95   0   0   0  0  0
  191  2  0   0   0   0  0  0
  192  0 96   0   0   0  0  0
  193  2  0   0   0   0  0  0
  194  0 97   0   0   0  0  0
  195  2  0   0   0   0  0  0
  196  0 98   0   0   0  0  0
  197  2  0   0   0   0  0  0
  198  0 99   0   0   0  0  0
  199  2  0   0   0   0  0  0
  200  0 100   0   0   0  0  0
  201  2  0   0   0   0  0  0
  202  0 101   0   0   0  0  0
  203  2  0   0   0   0  0  0
  204  0 102   0   0   0  0  0
  205  2  0   0   0   0  0  0
  206  0 103   0   0   0  0  0
  207  2  0   0   0   0  0  0
  208  0 104   0   0   0  0  0
  209  2  0   0   0   0  0  0
  210  0 105   0   0   0  0  0
  211  2  0   0   0   0  0  0
  212  0 106   0   0   0  0  0
  213  2  0   0   0   0  0  0
  214  0 107   0   0   0  0  0
  215  2  0   0   0   0  0  0
  216  0 108   0   0   0  0  0
  217  2  0   0   0   0  0  0
  218  0 109   0   0   0  0  0
  219  2  0   0   0   0  0  0
  220  0 110   0   0   0  0  0
  221  2  0   0   0   0  0  0
  222  0 111   0   0   0  0  0
  223  2  0   0   0   0  0  0
  224  0 112   0   0   0  0  0
  225  2  0   0   0   0  0  0
  226  0 113   0   0   0  0  0
  227  2  0   0   0   0  0  0
  228  0 114   0   0   0  0  0
  229  2  0   0   0   0  0  0
  230  0 115   0   0   0  0  0
  231  2  0   0   0   0  0  0
  232  0 116   0   0   0  0  0
  233  2  0   0   0   0  0  0
  234  0 117   0   0   0  0  0
  235  2  0   0   0   0  0  0
  236  0 118   0   0   0  0  0
  237  2  0   0   0   0  0  0
  238  0 119   0   0   0  0  0
  239  2  0   0   0   0  0  0
  240  0 120   0   0   0  0  0
  241  0  0   1   1   1  0  0
  242  0  0   0   0   0  1  0
  243  3  0   0   0   0  0  0
  244  0 121   0   0   0  0  0
  245  2  0   0   0   0  0  0
  246  0 122   0   0   0  0  0
  247  2  0   0   0   0  0  0
  248  0 123   0   0   0  0  0
  249  2  0   0   0   0  0  0
  250  0 124   0   0   0  0  0
  251  2  0   0   0   0  0  0
  252  0 125   0   0   0  0  0
  253  2  0   0   0   0  0  0
  254  0 126   0   0   0  0  0
  255  2  0   0   0   0  0  0
  256  0 127   0   0   0  0  0
  257  2  0   0   0   0  0  0
  258  0 128   0   0   0  0  0
  259  2  0   0   0   0  0  0
  260  0 129   0   0   0  0  0
  261  2  0   0   0   0  0  0
  262  0 130   0   0   0  0  0
  263  2  0   0   0   0  0  0
  264  0 131   0   0   0  0  0
  265  2  0   0   0   0  0  0
  266  0 132   0   0   0  0  0
  267  2  0   0   0   0  0  0
  268  0 133   0   0   0  0  0
  269  2  0   0   0   0  0  0
  270  0 134   0   0   0  0  0
  271  2  0   0   0   0  0  0
  272  0 135   0   0   0  0  0
  273  2  0   0   0   0  0  0
  274  0 136   0   0   0  0  0
  275  2  0   0   0   0  0  0
  276  0 137   0   0   0  0  0
  277  2  0   0   0   0  0  0
  278  0 138   0   0   0  0  0
  279  2  0   0   0   0  0  0
  280  0 139   0   0   0  0  0
  281  2  0   0   0   0  0  0
  282  0 140   0   0   0  0  0
  283  2  0   0   0   0  0  0
  284  0 141   0   0   0  0  0
  285  2  0   0   0   0  0  0
  286  0 142   0   0   0  0  0
  287  2  0   0   0   0  0  0
  288  0 143   0   0   0  0  0
  289  2  0   0   0   0  0  0
  290  0 144   0   0   0  0  0
  291  2  0   0   0   0  0  0
  292  0 145   0   0   0  0  0
  293  2  0   0   0   0  0  0
  294  0 146   0   0   0  0  0
  295  2  0   0   0   0  0  0
  296  0 147   0   0   0  0  0
  297  2  0   0   0   0  0  0
  298  0 148   0   0   0  0  0
  299  2  0   0   0   0  0  0
  300  0 149   0   0   0  0  0
  301  2  0   0   0   0  0  0
  302  0 150   0   0   0  0  0
  303  2  0   0   0   0  0  0
  304  0 151   0   0   0  0  0
  305  2  0   0   0   0  0  0
  306  0 152   0   0   0  0  0
[RF]
1      85.4997 1 2 100 -89166.5 0
2      85.4997 1 2 100 -89166.5 3.09181
3      85.4997 1 2 100 -89166.5 6.18361
4      85.4997 1 2 100 -89166.5 2.99223
5      85.4997 1 2 100 -89166.5 6.08404
6      85.4997 1 2 100 -89166.5 2.89266
7      85.4997 1 2 100 -89166.5 5.98447
8      85.4997 1 2 100 -89166.5 2.79309
9      85.4997 1 2 100 -89166.5 5.88489
10      85.4997 1 2 100 -89166.5 2.69352
11      85.4997 1 2 100 -89166.5 5.78532
12      85.4997 1 2 100 -89166.5 2.59394
13      85.4997 1 2 100 -89166.5 5.68575
14      85.4997 1 2 100 -89166.5 2.49437
15      85.4997 1 2 100 -89166.5 5.58618
16      85.4997 1 2 100 -89166.5 2.3948
17      85.4997 1 2 100 -89166.5 5.4866
18      85.4997 1 2 100 -89166.5 2.29522
19      85.4997 1 2 100 -89166.5 5.38703
20      85.4997 1 2 100 -89166.5 2.19565
21      85.4997 1 2 100 -89166.5 5.28746
22      85.4997 1 2 100 -89166.5 2.09608
23      85.4997 1 2 100 -89166.5 5.18789
24      85.4997 1 2 100 -89166.5 1.99651
25      85.4997 1 2 100 -89166.5 5.08831
26      85.4997 1 2 100 -89166.5 1.89693
27      85.4997 1 2 100 -89166.5 4.98874
28      85.4997 1 2 100 -89166.5 1.79736
29      85.4997 1 2 100 -89166.5 4.88917
30      85.4997 1 2 100 -89166.5 1.69779
31      85.4997 1 2 100 -89166.5 4.78959
32      85.4997 1 2 100 -89166.5 1.59822
33      85.4997 1 2 100 -89166.5 4.69002
34      85.4997 1 2 100 -89166.5 1.49864
35      85.4997 1 2 100 -89166.5 4.59045
36      85.4997 1 2 100 -89166.5 1.39907
37      85.4997 1 2 100 -89166.5 4.49088
38      85.4997 1 2 100 -89166.5 1.2995
39      85.4997 1 2 100 -89166.5 4.3913
40      85.4997 1 2 100 -89166.5 1.19992
41      85.4997 1 2 100 -89166.5 4.29173
42      85.4997 1 2 100 -89166.5 1.10035
43      85.4997 1 2 100 -89166.5 4.19216
44      85.4997 1 2 100 -89166.5 1.00078
45      85.4997 1 2 100 -89166.5 4.09259
46      85.4997 1 2 100 -89166.5 0.901207
47      85.4997 1 2 100 -89166.5 3.99301
48      85.4997 1 2 100 -89166.5 0.801634
49      85.4997 1 2 100 -89166.5 3.89344
50      85.4997 1 2 100 -89166.5 0.702061
51      85.4997 1 2 100 -89166.5 3.79387
52      85.4997 1 2 100 -89166.5 0.602488
53      85.4997 1 2 100 -89166.5 3.69429
54      85.4997 1 2 100 -89166.5 0.502916
55      85.4997 1 2 100 -89166.5 3.59472
56      85.4997 1 2 100 -89166.5 0.403343
57      85.4997 1 2 100 -89166.5 3.49515
58      85.4997 1 2 100 -89166.5 0.30377
59      85.4997 1 2 100 -89166.5 3.39558
60      85.4997 1 2 100 -89166.5 0.204198
61      85.4997 1 2 100 -89166.5 3.296
62      85.4997 1 2 100 -89166.5 0.104625
63      85.4997 1 2 100 -89166.5 3.19643
64      85.4997 1 2 100 -89166.5 0.00505215
65      85.4997 1 2 100 -89166.5 3.09686
66      85.4997 1 2 100 -89166.5 6.18866
67      85.4997 1 2 100 -89166.5 2.99729
68      85.4997 1 2 100 -89166.5 6.08909
69      85.4997 1 2 100 -89166.5 2.89771
70      85.4997 1 2 100 -89166.5 5.98952
71      85.4997 1 2 100 -89166.5 2.79814
72      85.4997 1 2 100 -89166.5 5.88995
73      85.4997 1 2 100 -89166.5 2.69857
74      85.4997 1 2 100 -89166.5 5.79037
75      85.4997 1 2 100 -89166.5 2.59899
76      85.4997 1 2 100 -89166.5 5.6908
77      85.4997 1 2 100 -89166.5 2.49942
78      85.4997 1 2 100 -89166.5 5.59123
79      85.4997 1 2 100 -89166.5 2.39985
80      85.4997 1 2 100 -89166.5 5.49166
81      85.4997 1 2 100 -89166.5 2.30028
82      85.4997 1 2 100 -89166.5 5.39208
83      85.4997 1 2 100 -89166.5 2.2007
84      85.4997 1 2 100 -89166.5 5.29251
85      85.4997 1 2 100 -89166.5 2.10113
86      85.4997 1 2 100 -89166.5 5.19294
87      85.4997 1 2 100 -89166.5 2.00156
88      85.4997 1 2 100 -89166.5 5.09336
89      85.4997 1 2 100 -89166.5 1.90199
90      85.4997 1 2 100 -89166.5 4.99379
91      85.4997 1 2 100 -89166.5 1.80241
92      85.4997 1 2 100 -89166.5 4.89422
93      85.4997 1 2 100 -89166.5 1.70284
94      85.4997 1 2 100 -89166.5 4.79465
95      85.4997 1 2 100 -89166.5 1.60327
96      85.4997 1 2 100 -89166.5 4.69507
97      85.4997 1 2 100 -89166.5 1.5037
98      85.4997 1 2 100 -89166.5 4.5955
99      85.4997 1 2 100 -89166.5 1.40412
100      85.4997 1 2 100 -89166.5 4.49593
101      85.4997 1 2 100 -89166.5 1.30455
102      85.4997 1 2 100 -89166.5 4.39636
103      85.4997 1 2 100 -89166.5 1.20498
104      85.4997 1 2 100 -89166.5 4.29678
105      85.4997 1 2 100 -89166.5 1.1054
106      85.4997 1 2 100 -89166.5 4.19721
107      85.4997 1 2 100 -89166.5 1.00583
108      85.4997 1 2 100 -89166.5 4.09764
109      85.4997 1 2 100 -89166.5 0.906259
110      85.4997 1 2 100 -89166.5 3.99807
111      85.4997 1 2 100 -89166.5 0.806686
112      85.4997 1 2 100 -89166.5 3.89849
113      85.4997 1 2 100 -89166.5 0.707113
114      85.4997 1 2 100 -89166.5 3.79892
115      85.4997 1 2 100 -89166.5 0.607541
116      85.4997 1 2 100 -89166.5 3.69935
117      85.4997 1 2 100 -89166.5 0.507968
118      85.4997 1 2 100 -89166.5 3.59977
119      85.4997 1 2 100 -89166.5 0.408395
120      85.4997 1 2 100 -89166.5 3.5002
121      85.4997 1 2 100 -29722.2 0
122      85.4997 1 2 100 -29722.2 3.125
123      85.4997 1 2 100 -29722.2 6.24999
124      85.4997 1 2 100 -29722.2 3.09181
125      85.4997 1 2 100 -29722.2 6.2168
126      85.4997 1 2 100 -29722.2 3.05862
127      85.4997 1 2 100 -29722.2 6.18361
128      85.4997 1 2 100 -29722.2 3.02542
129      85.4997 1 2 100 -29722.2 6.15042
130      85.4997 1 2 100 -29722.2 2.99223
131      85.4997 1 2 100 -29722.2 6.11723
132      85.4997 1 2 100 -29722.2 2.95904
133      85.4997 1 2 100 -29722.2 6.08404
134      85.4997 1 2 100 -29722.2 2.92585
135      85.4997 1 2 100 -29722.2 6.05085
136      85.4997 1 2 100 -29722.2 2.89266
137      85.4997 1 2 100 -29722.2 6.01766
138      85.4997 1 2 100 -29722.2 2.85947
139      85.4997 1 2 100 -29722.2 5.98447
140      85.4997 1 2 100 -29722.2 2.82628
141      85.4997 1 2 100 -29722.2 5.95128
142      85.4997 1 2 100 -29722.2 2.79309
143      85.4997 1 2 100 -29722.2 5.91809
144      85.4997 1 2 100 -29722.2 2.7599
145      85.4997 1 2 100 -29722.2 5.88489
146      85.4997 1 2 100 -29722.2 2.72671
147      85.4997 1 2 100 -29722.2 5.8517
148      85.4997 1 2 100 -29722.2 2.69352
149      85.4997 1 2 100 -29722.2 5.81851
150      85.4997 1 2 100 -29722.2 2.66032
151      85.4997 1 2 100 -29722.2 5.78532
152      85.4997 1 2 100 -29722.2 2.62713
153      85.4997 1 2 100 -29722.2 5.75213
154      85.4997 1 2 100 -29722.2 2.59394
155      85.4997 1 2 100 -29722.2 5.71894
156      85.4997 1 2 100 -29722.2 2.56075
157      85.4997 1 2 100 -29722.2 5.68575
158      85.4997 1 2 100 -29722.2 2.52756
159      85.4997 1 2 100 -29722.2 5.65256
160      85.4997 1 2 100 -29722.2 2.49437
161      85.4997 1 2 100 -29722.2 5.61937
162      85.4997 1 2 100 -29722.2 2.46118
163      85.4997 1 2 100 -29722.2 5.58618
164      85.4997 1 2 100 -29722.2 2.42799
165      85.4997 1 2 100 -29722.2 5.55299
166      85.4997 1 2 100 -29722.2 2.3948
167      85.4997 1 2 100 -29722.2 5.51979
168      85.4997 1 2 100 -29722.2 2.36161
169      85.4997 1 2 100 -29722.2 5.4866
170      85.4997 1 2 100 -29722.2 2.32842
171      85.4997 1 2 100 -29722.2 5.45341
172      85.4997 1 2 100 -29722.2 2.29522
173      85.4997 1 2 100 -29722.2 5.42022
174      85.4997 1 2 100 -29722.2 2.26203
175      85.4997 1 2 100 -29722.2 5.38703
176      85.4997 1 2 100 -29722.2 2.22884
177      85.4997 1 2 100 -29722.2 5.35384
178      85.4997 1 2 100 -29722.2 2.19565
179      85.4997 1 2 100 -29722.2 5.32065
180      85.4997 1 2 100 -29722.2 2.16246
181      85.4997 1 2 100 -29722.2 5.28746
182      85.4997 1 2 100 -29722.2 2.12927
183      85.4997 1 2 100 -29722.2 5.25427
184      85.4997 1 2 100 -29722.2 2.09608
185      85.4997 1 2 100 -29722.2 5.22108
186      85.4997 1 2 100 -29722.2 2.06289
187      85.4997 1 2 100 -29722.2 5.18789
188      85.4997 1 2 100 -29722.2 2.0297
189      85.4997 1 2 100 -29722.2 5.15469
190      85.4997 1 2 100 -29722.2 1.99651
191      85.4997 1 2 100 -29722.2 5.1215
192      85.4997 1 2 100 -29722.2 1.96332
193      85.4997 1 2 100 -29722.2 5.08831
194      85.4997 1 2 100 -29722.2 1.93012
195      85.4997 1 2 100 -29722.2 5.05512
196      85.4997 1 2 100 -29722.2 1.89693
197      85.4997 1 2 100 -29722.2 5.02193
198      85.4997 1 2 100 -29722.2 1.86374
199      85.4997 1 2 100 -29722.2 4.98874
200      85.4997 1 2 100 -29722.2 1.83055
201      85.4997 1 2 100 -29722.2 4.95555
202      85.4997 1 2 100 -29722.2 1.79736
203      85.4997 1 2 100 -29722.2 4.92236
204      85.4997 1 2 100 -29722.2 1.76417
205      85.4997 1 2 100 -29722.2 4.88917
206      85.4997 1 2 100 -29722.2 1.73098
207      85.4997 1 2 100 -29722.2 4.85598
208      85.4997 1 2 100 -29722.2 1.69779
209      85.4997 1 2 100 -29722.2 4.82279
210      85.4997 1 2 100 -29722.2 1.6646
211      85.4997 1 2 100 -29722.2 4.78959
212      85.4997 1 2 100 -29722.2 1.63141
213      85.4997 1 2 100 -29722.2 4.7564
214      85.4997 1 2 100 -29722.2 1.59822
215      85.4997 1 2 100 -29722.2 4.72321
216      85.4997 1 2 100 -29722.2 1.56502
217      85.4997 1 2 100 -29722.2 4.69002
218      85.4997 1 2 100 -29722.2 1.53183
219      85.4997 1 2 100 -29722.2 4.65683
220      85.4997 1 2 100 -29722.2 1.49864
221      85.4997 1 2 100 -29722.2 4.62364
222      85.4997 1 2 100 -29722.2 1.46545
223      85.4997 1 2 100 -29722.2 4.59045
224      85.4997 1 2 100 -29722.2 1.43226
225      85.4997 1 2 100 -29722.2 4.55726
226      85.4997 1 2 100 -29722.2 1.39907
227      85.4997 1 2 100 -29722.2 4.52407
228      85.4997 1 2 100 -29722.2 1.36588
229      85.4997 1 2 100 -29722.2 4.49088
230      85.4997 1 2 100 -29722.2 1.33269
231      85.4997 1 2 100 -29722.2 4.45769
232      85.4997 1 2 100 -29722.2 1.2995
233      85.4997 1 2 100 -29722.2 4.42449
234      85.4997 1 2 100 -29722.2 1.26631
235      85.4997 1 2 100 -29722.2 4.3913
236      85.4997 1 2 100 -29722.2 1.23312
237      85.4997 1 2 100 -29722.2 4.35811
238      85.4997 1 2 100 -29722.2 1.19992
239      85.4997 1 2 100 -29722.2 4.32492
240      85.4997 1 2 100 -29722.2 1.16673
241      85.4997 1 2 100 -14861.1 0
242      85.4997 1 2 100 -14861.1 4.70409
243      85.4997 1 2 100 -14861.1 3.125
244      85.4997 1 2 100 -14861.1 1.5459
245      85.4997 1 2 100 -14861.1 6.24999
246      85.4997 1 2 100 -14861.1 4.6709
247      85.4997 1 2 100 -14861.1 3.09181
248      85.4997 1 2 100 -14861.1 1.51271
249      85.4997 1 2 100 -14861.1 6.2168
250      85.4997 1 2 100 -14861.1 4.63771
251      85.4997 1 2 100 -14861.1 3.05862
252      85.4997 1 2 100 -14861.1 1.47952
253      85.4997 1 2 100 -14861.1 6.18361
254      85.4997 1 2 100 -14861.1 4.60452
255      85.4997 1 2 100 -14861.1 3.02542
256      85.4997 1 2 100 -14861.1 1.44633
257      85.4997 1 2 100 -14861.1 6.15042
258      85.4997 1 2 100 -14861.1 4.57133
259      85.4997 1 2 100 -14861.1 2.99223
260      85.4997 1 2 100 -14861.1 1.41314
261      85.4997 1 2 100 -14861.1 6.11723
262      85.4997 1 2 100 -14861.1 4.53814
263      85.4997 1 2 100 -14861.1 2.95904
264      85.4997 1 2 100 -14861.1 1.37995
265      85.4997 1 2 100 -14861.1 6.08404
266      85.4997 1 2 100 -14861.1 4.50495
267      85.4997 1 2 100 -14861.1 2.92585
268      85.4997 1 2 100 -14861.1 1.34676
269      85.4997 1 2 100 -14861.1 6.05085
270      85.4997 1 2 100 -14861.1 4.47175
271      85.4997 1 2 100 -14861.1 2.89266
272      85.4997 1 2 100 -14861.1 1.31357
273      85.4997 1 2 100 -14861.1 6.01766
274      85.4997 1 2 100 -14861.1 4.43856
275      85.4997 1 2 100 -14861.1 2.85947
276      85.4997 1 2 100 -14861.1 1.28038
277      85.4997 1 2 100 -14861.1 5.98447
278      85.4997 1 2 100 -14861.1 4.40537
279      85.4997 1 2 100 -14861.1 2.82628
280      85.4997 1 2 100 -14861.1 1.24719
281      85.4997 1 2 100 -14861.1 5.95128
282      85.4997 1 2 100 -14861.1 4.37218
283      85.4997 1 2 100 -14861.1 2.79309
284      85.4997 1 2 100 -14861.1 1.21399
285      85.4997 1 2 100 -14861.1 5.91809
286      85.4997 1 2 100 -14861.1 4.33899
287      85.4997 1 2 100 -14861.1 2.7599
288      85.4997 1 2 100 -14861.1 1.1808
289      85.4997 1 2 100 -14861.1 5.88489
290      85.4997 1 2 100 -14861.1 4.3058
291      85.4997 1 2 100 -14861.1 2.72671
292      85.4997 1 2 100 -14861.1 1.14761
293      85.4997 1 2 100 -14861.1 5.8517
294      85.4997 1 2 100 -14861.1 4.27261
295      85.4997 1 2 100 -14861.1 2.69352
296      85.4997 1 2 100 -14861.1 1.11442
297      85.4997 1 2 100 -14861.1 5.81851
298      85.4997 1 2 100 -14861.1 4.23942
299      85.4997 1 2 100 -14861.1 2.66032
300      85.4997 1 2 100 -14861.1 1.08123
301      85.4997 1 2 100 -14861.1 5.78532
302      85.4997 1 2 100 -14861.1 4.20623
303      85.4997 1 2 100 -14861.1 2.62713
304      85.4997 1 2 100 -14861.1 1.04804
305      85.4997 1 2 100 -14861.1 5.75213
306      85.4997 1 2 100 -14861.1 4.17304
307      85.4997 1 2 100 -14861.1 2.59394
308      85.4997 1 2 100 -14861.1 1.01485
309      85.4997 1 2 100 -14861.1 5.71894
310      85.4997 1 2 100 -14861.1 4.13985
311      85.4997 1 2 100 -14861.1 2.56075
312      85.4997 1 2 100 -14861.1 0.981658
313      85.4997 1 2 100 -14861.1 5.68575
314      85.4997 1 2 100 -14861.1 4.10665
315      85.4997 1 2 100 -14861.1 2.52756
316      85.4997 1 2 100 -14861.1 0.948467
317      85.4997 1 2 100 -14861.1 5.65256
318      85.4997 1 2 100 -14861.1 4.07346
319      85.4997 1 2 100 -14861.1 2.49437
320      85.4997 1 2 100 -14861.1 0.915276
321      85.4997 1 2 100 -14861.1 5.61937
322      85.4997 1 2 100 -14861.1 4.04027
323      85.4997 1 2 100 -14861.1 2.46118
324      85.4997 1 2 100 -14861.1 0.882085
325      85.4997 1 2 100 -14861.1 5.58618
326      85.4997 1 2 100 -14861.1 4.00708
327      85.4997 1 2 100 -14861.1 2.42799
328      85.4997 1 2 100 -14861.1 0.848894
329      85.4997 1 2 100 -14861.1 5.55299
330      85.4997 1 2 100 -14861.1 3.97389
331      85.4997 1 2 100 -14861.1 2.3948
332      85.4997 1 2 100 -14861.1 0.815703
333      85.4997 1 2 100 -14861.1 5.51979
334      85.4997 1 2 100 -14861.1 3.9407
335      85.4997 1 2 100 -14861.1 2.36161
336      85.4997 1 2 100 -14861.1 0.782512
337      85.4997 1 2 100 -14861.1 5.4866
338      85.4997 1 2 100 -14861.1 3.90751
339      85.4997 1 2 100 -14861.1 2.32842
340      85.4997 1 2 100 -14861.1 0.749321
341      85.4997 1 2 100 -14861.1 5.45341
342      85.4997 1 2 100 -14861.1 3.87432
343      85.4997 1 2 100 -14861.1 2.29522
344      85.4997 1 2 100 -14861.1 0.716131
345      85.4997 1 2 100 -14861.1 5.42022
346      85.4997 1 2 100 -14861.1 3.84113
347      85.4997 1 2 100 -14861.1 2.26203
348      85.4997 1 2 100 -14861.1 0.68294
349      85.4997 1 2 100 -14861.1 5.38703
350      85.4997 1 2 100 -14861.1 3.80794
351      85.4997 1 2 100 -14861.1 2.22884
352      85.4997 1 2 100 -14861.1 0.649749
353      85.4997 1 2 100 -14861.1 5.35384
354      85.4997 1 2 100 -14861.1 3.77475
355      85.4997 1 2 100 -14861.1 2.19565
356      85.4997 1 2 100 -14861.1 0.616558
357      85.4997 1 2 100 -14861.1 5.32065
358      85.4997 1 2 100 -14861.1 3.74156
359      85.4997 1 2 100 -14861.1 2.16246
360      85.4997 1 2 100 -14861.1 0.583367
361      85.4997 1 2 100 -5944.43 0
362      85.4997 1 2 100 -5944.43 4.39491
363      85.4997 1 2 100 -5944.43 2.50664
364      85.4997 1 2 100 -5944.43 0.618361
365      85.4997 1 2 100 -5944.43 5.01327
366      85.4997 1 2 100 -5944.43 3.125
367      85.4997 1 2 100 -5944.43 1.23672
368      85.4997 1 2 100 -5944.43 5.63163
369      85.4997 1 2 100 -5944.43 3.74336
370      85.4997 1 2 100 -5944.43 1.85508
371      85.4997 1 2 100 -5944.43 6.24999
372      85.4997 1 2 100 -5944.43 4.36172
373      85.4997 1 2 100 -5944.43 2.47345
374      85.4997 1 2 100 -5944.43 0.58517
375      85.4997 1 2 100 -5944.43 4.98008
376      85.4997 1 2 100 -5944.43 3.09181
377      85.4997 1 2 100 -5944.43 1.20353
378      85.4997 1 2 100 -5944.43 5.59844
379      85.4997 1 2 100 -5944.43 3.71017
380      85.4997 1 2 100 -5944.43 1.82189
381      85.4997 1 2 100 -5944.43 6.2168
382      85.4997 1 2 100 -5944.43 4.32853
383      85.4997 1 2 100 -5944.43 2.44025
384      85.4997 1 2 100 -5944.43 0.551979
385      85.4997 1 2 100 -5944.43 4.94689
386      85.4997 1 2 100 -5944.43 3.05862
387      85.4997 1 2 100 -5944.43 1.17034
388      85.4997 1 2 100 -5944.43 5.56525
389      85.4997 1 2 100 -5944.43 3.67698
390      85.4997 1 2 100 -5944.43 1.7887
391      85.4997 1 2 100 -5944.43 6.18361
392      85.4997 1 2 100 -5944.43 4.29534
393      85.4997 1 2 100 -5944.43 2.40706
394      85.4997 1 2 100 -5944.43 0.518789
395      85.4997 1 2 100 -5944.43 4.9137
396      85.4997 1 2 100 -5944.43 3.02542
397      85.4997 1 2 100 -5944.43 1.13715
398      85.4997 1 2 100 -5944.43 5.53206
399      85.4997 1 2 100 -5944.43 3.64379
400      85.4997 1 2 100 -5944.43 1.75551
401      85.4997 1 2 100 -5944.43 6.15042
402      85.4997 1 2 100 -5944.43 4.26215
403      85.4997 1 2 100 -5944.43 2.37387
404      85.4997 1 2 100 -5944.43 0.485598
405      85.4997 1 2 100 -5944.43 4.88051
406      85.4997 1 2 100 -5944.43 2.99223
407      85.4997 1 2 100 -5944.43 1.10396
408      85.4997 1 2 100 -5944.43 5.49887
409      85.4997 1 2 100 -5944.43 3.61059
410      85.4997 1 2 100 -5944.43 1.72232
411      85.4997 1 2 100 -5944.43 6.11723
412      85.4997 1 2 100 -5944.43 4.22896
413      85.4997 1 2 100 -5944.43 2.34068
414      85.4997 1 2 100 -5944.43 0.452407
415      85.4997 1 2 100 -5944.43 4.84732
416      85.4997 1 2 100 -5944.43 2.95904
417      85.4997 1 2 100 -5944.43 1.07077
418      85.4997 1 2 100 -5944.43 5.46568
419      85.4997 1 2 100 -5944.43 3.5774
420      85.4997 1 2 100 -5944.43 1.68913
421      85.4997 1 2 100 -5944.43 6.08404
422      85.4997 1 2 100 -5944.43 4.19577
423      85.4997 1 2 100 -5944.43 2.30749
424      85.4997 1 2 100 -5944.43 0.419216
425      85.4997 1 2 100 -5944.43 4.81413
426      85.4997 1 2 100 -5944.43 2.92585
427      85.4997 1 2 100 -5944.43 1.03758
428      85.4997 1 2 100 -5944.43 5.43249
429      85.4997 1 2 100 -5944.43 3.54421
430      85.4997 1 2 100 -5944.43 1.65594
431      85.4997 1 2 100 -5944.43 6.05085
432      85.4997 1 2 100 -5944.43 4.16257
433      85.4997 1 2 100 -5944.43 2.2743
434      85.4997 1 2 100 -5944.43 0.386025
435      85.4997 1 2 100 -5944.43 4.78094
436      85.4997 1 2 100 -5944.43 2.89266
437      85.4997 1 2 100 -5944.43 1.00439
438      85.4997 1 2 100 -5944.43 5.3993
439      85.4997 1 2 100 -5944.43 3.51102
440      85.4997 1 2 100 -5944.43 1.62275
441      85.4997 1 2 100 -5944.43 6.01766
442      85.4997 1 2 100 -5944.43 4.12938
443      85.4997 1 2 100 -5944.43 2.24111
444      85.4997 1 2 100 -5944.43 0.352834
445      85.4997 1 2 100 -5944.43 4.74774
446      85.4997 1 2 100 -5944.43 2.85947
447      85.4997 1 2 100 -5944.43 0.971195
448      85.4997 1 2 100 -5944.43 5.36611
449      85.4997 1 2 100 -5944.43 3.47783
450      85.4997 1 2 100 -5944.43 1.58956
451      85.4997 1 2 100 -5944.43 5.98447
452      85.4997 1 2 100 -5944.43 4.09619
453      85.4997 1 2 100 -5944.43 2.20792
454      85.4997 1 2 100 -5944.43 0.319643
455      85.4997 1 2 100 -5944.43 4.71455
456      85.4997 1 2 100 -5944.43 2.82628
457      85.4997 1 2 100 -5944.43 0.938004
458      85.4997 1 2 100 -5944.43 5.33291
459      85.4997 1 2 100 -5944.43 3.44464
460      85.4997 1 2 100 -5944.43 1.55637
461      85.4997 1 2 100 -5944.43 5.95128
462      85.4997 1 2 100 -5944.43 4.063
463      85.4997 1 2 100 -5944.43 2.17473
464      85.4997 1 2 100 -5944.43 0.286452
465      85.4997 1 2 100 -5944.43 4.68136
466      85.4997 1 2 100 -5944.43 2.79309
467      85.4997 1 2 100 -5944.43 0.904813
468      85.4997 1 2 100 -5944.43 5.29972
469      85.4997 1 2 100 -5944.43 3.41145
470      85.4997 1 2 100 -5944.43 1.52317
471      85.4997 1 2 100 -5944.43 5.91809
472      85.4997 1 2 100 -5944.43 4.02981
473      85.4997 1 2 100 -5944.43 2.14154
474      85.4997 1 2 100 -5944.43 0.253261
475      85.4997 1 2 100 -5944.43 4.64817
476      85.4997 1 2 100 -5944.43 2.7599
477      85.4997 1 2 100 -5944.43 0.871623
478      85.4997 1 2 100 -5944.43 5.26653
479      85.4997 1 2 100 -5944.43 3.37826
