# Pulseq sequence file
# Created by PyPulseq

[VERSION]
major 1
minor 4
revision 0

[DEFINITIONS]
AdcRasterTime 1e-07 
Bandwidth 499 Hz/px 
BlockDurationRaster 1e-05 
FOV 0.2 0.2 0.008 
GradientRasterTime 1e-05 
RadiofrequencyRasterTime 1e-06 
TotalDuration 15.5807 

# Format of blocks:
# NUM DUR RF  GX  GY  GZ  ADC  EXT
[BLOCKS]
  1 0   0   0   0   0  0  0
  2  36   0   0   0   1  0  0
  3 116   1   0   0   2  0  0
  4  36   0   0   0   1  0  0
  5  58   0   0   0   0  0  0
  6  66   0   3   0   0  0  0
  7 206   0   4   0   0  1  0
  8  78   0   5   0   0  0  0
  9  10   0   0   0   0  0  0
 10  36   0   0   0   1  0  0
 11 116   2   0   0   2  0  0
 12  36   0   0   0   1  0  0
 13  58   0   0   0   0  0  0
 14  66   0   3   6   0  0  0
 15 206   0   4   0   0  2  0
 16  78   0   5   7   0  0  0
 17  10   0   0   0   0  0  0
 18  36   0   0   0   1  0  0
 19 116   3   0   0   2  0  0
 20  36   0   0   0   1  0  0
 21  58   0   0   0   0  0  0
 22  66   0   3   8   0  0  0
 23 206   0   4   0   0  3  0
 24  78   0   5   9   0  0  0
 25  10   0   0   0   0  0  0
 26  36   0   0   0   1  0  0
 27 116   4   0   0   2  0  0
 28  36   0   0   0   1  0  0
 29  58   0   0   0   0  0  0
 30  66   0   3  10   0  0  0
 31 206   0   4   0   0  4  0
 32  78   0   5  11   0  0  0
 33  10   0   0   0   0  0  0
 34  36   0   0   0   1  0  0
 35 116   5   0   0   2  0  0
 36  36   0   0   0   1  0  0
 37  58   0   0   0   0  0  0
 38  66   0   3  12   0  0  0
 39 206   0   4   0   0  5  0
 40  78   0   5  13   0  0  0
 41  10   0   0   0   0  0  0
 42  36   0   0   0   1  0  0
 43 116   6   0   0   2  0  0
 44  36   0   0   0   1  0  0
 45  58   0   0   0   0  0  0
 46  66   0   3  14   0  0  0
 47 206   0   4   0   0  6  0
 48  78   0   5  15   0  0  0
 49  10   0   0   0   0  0  0
 50  36   0   0   0   1  0  0
 51 116   7   0   0   2  0  0
 52  36   0   0   0   1  0  0
 53  58   0   0   0   0  0  0
 54  66   0   3  16   0  0  0
 55 206   0   4   0   0  7  0
 56  78   0   5  17   0  0  0
 57  10   0   0   0   0  0  0
 58  36   0   0   0   1  0  0
 59 116   8   0   0   2  0  0
 60  36   0   0   0   1  0  0
 61  58   0   0   0   0  0  0
 62  66   0   3  18   0  0  0
 63 206   0   4   0   0  8  0
 64  78   0   5  19   0  0  0
 65  10   0   0   0   0  0  0
 66  36   0   0   0   1  0  0
 67 116   4   0   0   2  0  0
 68  36   0   0   0   1  0  0
 69  58   0   0   0   0  0  0
 70  66   0   3  20   0  0  0
 71 206   0   4   0   0  4  0
 72  78   0   5  21   0  0  0
 73  10   0   0   0   0  0  0
 74  36   0   0   0   1  0  0
 75 116   6   0   0   2  0  0
 76  36   0   0   0   1  0  0
 77  58   0   0   0   0  0  0
 78  66   0   3  22   0  0  0
 79 206   0   4   0   0  6  0
 80  78   0   5  23   0  0  0
 81  10   0   0   0   0  0  0
 82  36   0   0   0   1  0  0
 83 116   9   0   0   2  0  0
 84  36   0   0   0   1  0  0
 85  58   0   0   0   0  0  0
 86  66   0   3  24   0  0  0
 87 206   0   4   0   0  9  0
 88  78   0   5  25   0  0  0
 89  10   0   0   0   0  0  0
 90  36   0   0   0   1  0  0
 91 116   4   0   0   2  0  0
 92  36   0   0   0   1  0  0
 93  58   0   0   0   0  0  0
 94  66   0   3  26   0  0  0
 95 206   0   4   0   0  4  0
 96  78   0   5  27   0  0  0
 97  10   0   0   0   0  0  0
 98  36   0   0   0   1  0  0
 99 116  10   0   0   2  0  0
100  36   0   0   0   1  0  0
101  58   0   0   0   0  0  0
102  66   0   3  28   0  0  0
103 206   0   4   0   0 10  0
104  78   0   5  29   0  0  0
105  10   0   0   0   0  0  0
106  36   0   0   0   1  0  0
107 116   2   0   0   2  0  0
108  36   0   0   0   1  0  0
109  58   0   0   0   0  0  0
110  66   0   3  30   0  0  0
111 206   0   4   0   0  2  0
112  78   0   5  31   0  0  0
113  10   0   0   0   0  0  0
114  36   0   0   0   1  0  0
115 116   6   0   0   2  0  0
116  36   0   0   0   1  0  0
117  58   0   0   0   0  0  0
118  66   0   3  32   0  0  0
119 206   0   4   0   0  6  0
120  78   0   5  33   0  0  0
121  10   0   0   0   0  0  0
122  36   0   0   0   1  0  0
123 116  11   0   0   2  0  0
124  36   0   0   0   1  0  0
125  58   0   0   0   0  0  0
126  66   0   3  34   0  0  0
127 206   0   4   0   0  1  0
128  78   0   5  35   0  0  0
129  10   0   0   0   0  0  0
130  36   0   0   0   1  0  0
131 116  12   0   0   2  0  0
132  36   0   0   0   1  0  0
133  58   0   0   0   0  0  0
134  66   0   3  36   0  0  0
135 206   0   4   0   0 11  0
136  78   0   5  37   0  0  0
137  10   0   0   0   0  0  0
138  36   0   0   0   1  0  0
139 116   3   0   0   2  0  0
140  36   0   0   0   1  0  0
141  58   0   0   0   0  0  0
142  66   0   3  38   0  0  0
143 206   0   4   0   0  3  0
144  78   0   5  39   0  0  0
145  10   0   0   0   0  0  0
146  36   0   0   0   1  0  0
147 116   7   0   0   2  0  0
148  36   0   0   0   1  0  0
149  58   0   0   0   0  0  0
150  66   0   3  40   0  0  0
151 206   0   4   0   0  7  0
152  78   0   5  41   0  0  0
153  10   0   0   0   0  0  0
154  36   0   0   0   1  0  0
155 116   5   0   0   2  0  0
156  36   0   0   0   1  0  0
157  58   0   0   0   0  0  0
158  66   0   3  42   0  0  0
159 206   0   4   0   0  5  0
160  78   0   5  43   0  0  0
161  10   0   0   0   0  0  0
162  36   0   0   0   1  0  0
163 116  11   0   0   2  0  0
164  36   0   0   0   1  0  0
165  58   0   0   0   0  0  0
166  66   0   3  44   0  0  0
167 206   0   4   0   0  1  0
168  78   0   5  45   0  0  0
169  10   0   0   0   0  0  0
170  36   0   0   0   1  0  0
171 116   7   0   0   2  0  0
172  36   0   0   0   1  0  0
173  58   0   0   0   0  0  0
174  66   0   3  46   0  0  0
175 206   0   4   0   0  7  0
176  78   0   5  47   0  0  0
177  10   0   0   0   0  0  0
178  36   0   0   0   1  0  0
179 116  13   0   0   2  0  0
180  36   0   0   0   1  0  0
181  58   0   0   0   0  0  0
182  66   0   3  48   0  0  0
183 206   0   4   0   0 12  0
184  78   0   5  49   0  0  0
185  10   0   0   0   0  0  0
186  36   0   0   0   1  0  0
187 116   4   0   0   2  0  0
188  36   0   0   0   1  0  0
189  58   0   0   0   0  0  0
190  66   0   3  50   0  0  0
191 206   0   4   0   0  4  0
192  78   0   5  51   0  0  0
193  10   0   0   0   0  0  0
194  36   0   0   0   1  0  0
195 116  11   0   0   2  0  0
196  36   0   0   0   1  0  0
197  58   0   0   0   0  0  0
198  66   0   3  52   0  0  0
199 206   0   4   0   0  1  0
200  78   0   5  53   0  0  0
201  10   0   0   0   0  0  0
202  36   0   0   0   1  0  0
203 116   9   0   0   2  0  0
204  36   0   0   0   1  0  0
205  58   0   0   0   0  0  0
206  66   0   3  54   0  0  0
207 206   0   4   0   0  9  0
208  78   0   5  55   0  0  0
209  10   0   0   0   0  0  0
210  36   0   0   0   1  0  0
211 116   7   0   0   2  0  0
212  36   0   0   0   1  0  0
213  58   0   0   0   0  0  0
214  66   0   3  56   0  0  0
215 206   0   4   0   0  7  0
216  78   0   5  57   0  0  0
217  10   0   0   0   0  0  0
218  36   0   0   0   1  0  0
219 116  10   0   0   2  0  0
220  36   0   0   0   1  0  0
221  58   0   0   0   0  0  0
222  66   0   3  58   0  0  0
223 206   0   4   0   0 10  0
224  78   0   5  59   0  0  0
225  10   0   0   0   0  0  0
226  36   0   0   0   1  0  0
227 116  12   0   0   2  0  0
228  36   0   0   0   1  0  0
229  58   0   0   0   0  0  0
230  66   0   3  60   0  0  0
231 206   0   4   0   0 11  0
232  78   0   5  61   0  0  0
233  10   0   0   0   0  0  0
234  36   0   0   0   1  0  0
235 116   6   0   0   2  0  0
236  36   0   0   0   1  0  0
237  58   0   0   0   0  0  0
238  66   0   3  62   0  0  0
239 206   0   4   0   0  6  0
240  78   0   5  63   0  0  0
241  10   0   0   0   0  0  0
242  36   0   0   0   1  0  0
243 116   6   0   0   2  0  0
244  36   0   0   0   1  0  0
245  58   0   0   0   0  0  0
246  66   0   3  64   0  0  0
247 206   0   4   0   0  6  0
248  78   0   5  65   0  0  0
249  10   0   0   0   0  0  0
250  36   0   0   0   1  0  0
251 116  12   0   0   2  0  0
252  36   0   0   0   1  0  0
253  58   0   0   0   0  0  0
254  66   0   3  66   0  0  0
255 206   0   4   0   0 11  0
256  78   0   5  67   0  0  0
257  10   0   0   0   0  0  0
258  36   0   0   0   1  0  0
259 116  10   0   0   2  0  0
260  36   0   0   0   1  0  0
261  58   0   0   0   0  0  0
262  66   0   3  68   0  0  0
263 206   0   4   0   0 10  0
264  78   0   5  69   0  0  0
265  10   0   0   0   0  0  0
266  36   0   0   0   1  0  0
267 116   7   0   0   2  0  0
268  36   0   0   0   1  0  0
269  58   0   0   0   0  0  0
270  66   0   3  70   0  0  0
271 206   0   4   0   0  7  0
272  78   0   5  71   0  0  0
273  10   0   0   0   0  0  0
274  36   0   0   0   1  0  0
275 116   9   0   0   2  0  0
276  36   0   0   0   1  0  0
277  58   0   0   0   0  0  0
278  66   0   3  72   0  0  0
279 206   0   4   0   0  9  0
280  78   0   5  73   0  0  0
281  10   0   0   0   0  0  0
282  36   0   0   0   1  0  0
283 116  11   0   0   2  0  0
284  36   0   0   0   1  0  0
285  58   0   0   0   0  0  0
286  66   0   3  74   0  0  0
287 206   0   4   0   0  1  0
288  78   0   5  75   0  0  0
289  10   0   0   0   0  0  0
290  36   0   0   0   1  0  0
291 116   4   0   0   2  0  0
292  36   0   0   0   1  0  0
293  58   0   0   0   0  0  0
294  66   0   3  76   0  0  0
295 206   0   4   0   0  4  0
296  78   0   5  77   0  0  0
297  10   0   0   0   0  0  0
298  36   0   0   0   1  0  0
299 116  13   0   0   2  0  0
300  36   0   0   0   1  0  0
301  58   0   0   0   0  0  0
302  66   0   3  78   0  0  0
303 206   0   4   0   0 12  0
304  78   0   5  79   0  0  0
305  10   0   0   0   0  0  0
306  36   0   0   0   1  0  0
307 116   7   0   0   2  0  0
308  36   0   0   0   1  0  0
309  58   0   0   0   0  0  0
310  66   0   3  80   0  0  0
311 206   0   4   0   0  7  0
312  78   0   5  81   0  0  0
313  10   0   0   0   0  0  0
314  36   0   0   0   1  0  0
315 116  11   0   0   2  0  0
316  36   0   0   0   1  0  0
317  58   0   0   0   0  0  0
318  66   0   3  82   0  0  0
319 206   0   4   0   0  1  0
320  78   0   5  83   0  0  0
321  10   0   0   0   0  0  0
322  36   0   0   0   1  0  0
[RF]
1      76.8015 1 2 0 100 0 1.46608
2      76.8015 1 2 0 100 0 2.93215
3      76.8015 1 2 0 100 0 5.86431
4      76.8015 1 2 0 100 0 3.97935
5      76.8015 1 2 0 100 0 3.56047
6      76.8015 1 2 0 100 0 4.60767
7      76.8015 1 2 0 100 0 0.837758
8      76.8015 1 2 0 100 0 4.81711
9      76.8015 1 2 0 100 0 0.418879
10      76.8015 1 2 0 100 0 2.72271
11      76.8015 1 2 0 100 0 1.46608
12      76.8015 1 2 0 100 0 6.07375
13      76.8015 1 2 0 100 0 1.67552

# Format of trapezoid gradients:
# id amplitude rise flat fall delay
# ..      Hz/m   us   us   us    us
[TRAP]
 1 -1.47222e+06 180    0 180   0
 2       500000  60 1000  60  40
 3      -403443  50  560  50   0
 4       240000  30 2000  30   0
 5       568873  70  640  70   0
 6     -7692.31  10  640  10   0
 7      6493.51  10  760  10   0
 8      7692.31  10  640  10   0
 9     -6493.51  10  760  10   0
10     -15384.6  10  640  10   0
11        12987  10  760  10   0
12      15384.6  10  640  10   0
13       -12987  10  760  10   0
14     -23076.9  10  640  10   0
15      19480.5  10  760  10   0
16      23076.9  10  640  10   0
17     -19480.5  10  760  10   0
18     -30769.2  10  640  10   0
19        25974  10  760  10   0
20      30769.2  10  640  10   0
21       -25974  10  760  10   0
22     -38461.5  10  640  10   0
23      32467.5  10  760  10   0
24      38461.5  10  640  10   0
25     -32467.5  10  760  10   0
26     -46153.8  10  640  10   0
27        38961  10  760  10   0
28      46153.8  10  640  10   0
29       -38961  10  760  10   0
30     -53846.2  10  640  10   0
31      45454.5  10  760  10   0
32      53846.2  10  640  10   0
33     -45454.5  10  760  10   0
34     -61538.5  10  640  10   0
35      51948.1  10  760  10   0
36      61538.5  10  640  10   0
37     -51948.1  10  760  10   0
38     -69230.8  10  640  10   0
39      58441.6  10  760  10   0
40      69230.8  10  640  10   0
41     -58441.6  10  760  10   0
42     -76923.1  10  640  10   0
43      64935.1  10  760  10   0
44      76923.1  10  640  10   0
45     -64935.1  10  760  10   0
46     -84615.4  10  640  10   0
47      71428.6  10  760  10   0
48      84615.4  10  640  10   0
49     -71428.6  10  760  10   0
50       -93750  20  620  20   0
51      77922.1  10  760  10   0
52        93750  20  620  20   0
53     -77922.1  10  760  10   0
54      -101562  20  620  20   0
55      84415.6  10  760  10   0
56       101562  20  620  20   0
57     -84415.6  10  760  10   0
58      -109375  20  620  20   0
59      92105.3  20  740  20   0
60       109375  20  620  20   0
61     -92105.3  20  740  20   0
62      -117187  20  620  20   0
63      98684.2  20  740  20   0
64       117187  20  620  20   0
65     -98684.2  20  740  20   0
66      -125000  20  620  20   0
67       105263  20  740  20   0
68       125000  20  620  20   0
69      -105263  20  740  20   0
70      -132812  20  620  20   0
71       111842  20  740  20   0
72       132812  20  620  20   0
73      -111842  20  740  20   0
74      -140625  20  620  20   0
75       118421  20  740  20   0
76       140625  20  620  20   0
77      -118421  20  740  20   0
78      -148438  20  620  20   0
79       125000  20  740  20   0
80       148438  20  620  20   0
81      -125000  20  740  20   0
82      -156250  20  620  20   0
83       131579  20  740  20   0
84       156250  20  620  20   0
85      -131579  20  740  20   0
86      -164062  20  620  20   0
87       138158  20  740  20   0
88       164062  20  620  20   0
89      -138158  20  740  20   0
90      -174603  30  600  30   0
91       144737  20  740  20   0
92       174603  30  600  30   0
93      -144737  20  740  20   0
94      -182540  30  600  30   0
95       151316  20  740  20   0
96       182540  30  600  30   0
97      -151316  20  740  20   0
98      -190476  30  600  30   0
99       157895  20  740  20   0
100       190476  30  600  30   0
101      -157895  20  740  20   0
102      -198413  30  600  30   0
103       164474  20  740  20   0
104       198413  30  600  30   0
105      -164474  20  740  20   0
106      -206349  30  600  30   0
107       173333  30  720  30   0
108       206349  30  600  30   0
109      -173333  30  720  30   0
110      -214286  30  600  30   0
111       180000  30  720  30   0
112       214286  30  600  30   0
113      -180000  30  720  30   0
114      -222222  30  600  30   0
115       186667  30  720  30   0
116       222222  30  600  30   0
117      -186667  30  720  30   0
118      -230159  30  600  30   0
119       193333  30  720  30   0
120       230159  30  600  30   0
121      -193333  30  720  30   0
122      -238095  30  600  30   0
123       200000  30  720  30   0
124       238095  30  600  30   0
125      -200000  30  720  30   0
126      -246032  30  600  30   0
127       206667  30  720  30   0
128       246032  30  600  30   0
129      -206667  30  720  30   0
130      -253968  30  600  30   0
131       213333  30  720  30   0
132       253968  30  600  30   0
133      -213333  30  720  30   0
134      -266129  40  580  40   0
135       220000  30  720  30   0
136       266129  40  580  40   0
137      -220000  30  720  30   0
138      -274194  40  580  40   0
139       226667  30  720  30   0
140       274194  40  580  40   0
141      -226667  30  720  30   0
142      -282258  40  580  40   0
143       233333  30  720  30   0
144       282258  40  580  40   0
145      -233333  30  720  30   0
146      -290323  40  580  40   0
147       240000  30  720  30   0
148       290323  40  580  40   0
149      -240000  30  720  30   0
150      -298387  40  580  40   0
151       246667  30  720  30   0
152       298387  40  580  40   0
153      -246667  30  720  30   0
154      -306452  40  580  40   0
155       253333  30  720  30   0
156       306452  40  580  40   0
157      -253333  30  720  30   0
158      -314516  40  580  40   0
159       263514  40  700  40   0
160       314516  40  580  40   0
161      -263514  40  700  40   0
162      -322581  40  580  40   0
163       270270  40  700  40   0
164       322581  40  580  40   0
165      -270270  40  700  40   0
166      -330645  40  580  40   0
167       277027  40  700  40   0
168       330645  40  580  40   0
169      -277027  40  700  40   0
170      -338710  40  580  40   0
171       283784  40  700  40   0
172       338710  40  580  40   0
173      -283784  40  700  40   0
174      -352459  50  560  50   0
175       290541  40  700  40   0
176       352459  50  560  50   0
177      -290541  40  700  40   0
178      -360656  50  560  50   0
179       297297  40  700  40   0
180       360656  50  560  50   0
181      -297297  40  700  40   0
182      -368852  50  560  50   0
183       304054  40  700  40   0
184       368852  50  560  50   0
185      -304054  40  700  40   0
186      -377049  50  560  50   0
187       310811  40  700  40   0
188       377049  50  560  50   0
189      -310811  40  700  40   0
190      -385246  50  560  50   0
191       317568  40  700  40   0
192       385246  50  560  50   0
193      -317568  40  700  40   0
194      -393443  50  560  50   0
195       324324  40  700  40   0

# Format of ADC events:
# id num dwell delay freq phase
# ..  ..    ns    us   Hz   rad
[ADC]
1 96 20800 30 0 0.680678
2 96 20800 30 0 2.14676
3 96 20800 30 0 5.07891
4 96 20800 30 0 3.19395
5 96 20800 30 0 2.77507
6 96 20800 30 0 3.82227
7 96 20800 30 0 0.0523599
8 96 20800 30 0 4.03171
9 96 20800 30 0 -0.366519
10 96 20800 30 0 1.93732
11 96 20800 30 0 5.28835
12 96 20800 30 0 0.890118

# Sequence Shapes
[SHAPES]

shape_id 1
num_samples 1000
2.46987503e-09
6.68164436e-08
3.09920458e-07
8.51983185e-07
1.8139994e-06
3.31769462e-06
5.48546172e-06
8.44029687e-06
1.23057349e-05
1.72057839e-05
2.32648598e-05
3.06077193e-05
3.93593938e-05
4.96451212e-05
6.15902785e-05
7.53203133e-05
9.0960675e-05
0.000108636746
0.00012847377
0.000150596786
0.000175130554
0.000202199487
0.000231927578
0.000264438332
0.00029985469
0.000338298962
0.00037989275
0.000424756882
0.000473011336
0.000524775166
0.000580166435
0.000639302138
0.000702298131
0.000769269059
0.000840328283
0.000915587807
0.000995158206
0.00107914855
0.00116766635
0.00126081745
0.001358706
0.00146143433
0.00156910294
0.00168181038
0.00179965321
0.0019227259
0.00205112078
0.00218492798
0.00232423533
0.00246912832
0.00261969001
0.00277600097
0.00293813921
0.00310618011
0.00328019639
0.00346025796
0.00364643195
0.00383878258
0.00403737111
0.0042422558
0.00445349183
0.00467113121
0.00489522278
0.00512581209
0.00536294137
0.00560664948
0.00585697182
0.00611394028
0.00637758323
0.00664792539
0.00692498783
0.00720878789
0.00749933914
0.00779665132
0.0081007303
0.00841157802
0.00872919243
0.00905356747
0.00938469301
0.00972255481
0.0100671344
0.0104184093
0.0107763526
0.011140933
0.0115121153
0.0118898595
0.0122741214
0.0126648523
0.0130619991
0.0134655042
0.0138753055
0.014291336
0.0147135246
0.0151417953
0.0155760675
0.0160162559
0.0164622705
0.0169140168
0.0173713952
0.0178343015
0.018302627
0.0187762578
0.0192550753
0.0197389563
0.0202277726
0.0207213911
0.0212196741
0.0217224788
0.0222296577
0.0227410583
0.0232565234
0.0237758909
0.0242989938
0.0248256602
0.0253557136
0.0258889722
0.0264252499
0.0269643554
0.0275060927
0.0280502611
0.0285966549
0.0291450639
0.029695273
0.0302470623
0.0308002074
0.031354479
0.0319096433
0.0324654619
0.0330216916
0.0335780848
0.0341343894
0.0346903485
0.0352457012
0.0358001817
0.0363535202
0.0369054422
0.0374556692
0.0380039182
0.0385499021
0.0390933297
0.0396339054
0.0401713298
0.0407052993
0.0412355066
0.0417616401
0.0422833846
0.0428004212
0.0433124269
0.0438190754
0.0443200365
0.0448149767
0.0453035589
0.0457854425
0.0462602837
0.0467277354
0.0471874473
0.0476390659
0.0480822347
0.0485165944
0.0489417825
0.0493574338
0.0497631806
0.0501586521
0.0505434754
0.0509172749
0.0512796725
0.051630288
0.0519687388
0.0522946404
0.0526076061
0.0529072472
0.0531931734
0.0534649925
0.0537223105
0.0539647321
0.0541918604
0.0544032973
0.0545986431
0.0547774973
0.0549394583
0.0550841233
0.0552110888
0.0553199508
0.0554103043
0.0554817439
0.055533864
0.0555662583
0.0555785206
0.0555702446
0.0555410239
0.0554904523
0.0554181239
0.0553236331
0.0552065747
0.0550665443
0.0549031382
0.0547159532
0.0545045875
0.05426864
0.0540077109
0.0537214019
0.0534093157
0.0530710568
0.0527062314
0.0523144473
0.0518953143
0.0514484442
0.0509734507
0.0504699502
0.049937561
0.0493759042
0.0487846034
0.0481632849
0.0475115779
0.0468291145
0.0461155299
0.0453704626
0.0445935543
0.0437844502
0.042942799
0.0420682533
0.0411604692
0.0402191068
0.0392438304
0.0382343084
0.0371902132
0.036111222
0.0349970161
0.0338472818
0.0326617098
0.0314399958
0.0301818404
0.0288869494
0.0275550337
0.0261858094
0.024778998
0.0233343268
0.0218515285
0.0203303413
0.0187705097
0.0171717839
0.0155339201
0.0138566808
0.0121398346
0.0103831565
0.008586428
0.00674943716
0.00487197864
0.00295385387
0.00099487113
0.00100515437
0.00304640039
0.00512903756
0.00725322929
0.00941913171
0.0116268935
0.013876656
0.0161685529
0.0185027101
0.0208792461
0.0232982713
0.0257598884
0.028264192
0.0308112688
0.0334011973
0.036034048
0.0387098828
0.0414287556
0.0441907117
0.0469957882
0.0498440135
0.0527354075
0.0556699814
0.0586477378
0.0616686704
0.0647327645
0.067839996
0.0709903323
0.0741837318
0.0774201438
0.0806995087
0.0840217577
0.0873868129
0.0907945874
0.0942449851
0.0977379004
0.101273219
0.104850817
0.10847056
0.112132307
0.115835906
0.119581195
0.123368004
0.127196153
0.131065453
0.134975704
0.138926698
0.142918219
0.146950038
0.151021919
0.155133616
0.159284874
0.163475429
0.167705005
0.171973319
0.176280079
0.180624981
0.185007715
0.189427958
0.193885382
0.198379645
0.202910399
0.207477286
0.212079939
0.21671798
0.221391025
0.226098679
0.230840537
0.235616187
0.240425207
0.245267167
0.250141627
0.255048138
0.259986244
0.264955478
0.269955367
0.274985427
0.280045167
0.285134087
0.290251678
0.295397424
0.3005708
0.305771273
0.310998302
0.316251338
0.321529824
0.326833195
0.332160878
0.337512294
0.342886855
0.348283965
0.353703022
0.359143416
0.364604529
0.370085739
0.375586414
0.381105915
0.386643598
0.392198813
0.3977709
0.403359196
0.408963029
0.414581724
0.420214598
0.42586096
0.431520118
0.43719137
0.44287401
0.448567328
0.454270606
0.459983122
0.46570415
0.471432957
0.477168807
0.482910958
0.488658665
0.494411177
0.500167739
0.505927594
0.511689979
0.517454126
0.523219267
0.528984627
0.53474943
0.540512895
0.54627424
0.552032677
0.55778742
0.563537675
0.569282649
0.575021546
0.580753567
0.586477913
0.59219378
0.597900366
0.603596864
0.609282469
0.614956372
0.620617764
0.626265837
0.631899779
0.63751878
0.643122028
0.648708713
0.654278022
0.659829144
0.665361268
0.670873584
0.676365282
0.681835553
0.687283588
0.692708581
0.698109726
0.703486218
0.708837256
0.714162039
0.719459767
0.724729644
0.729970876
0.735182671
0.74036424
0.745514796
0.750633557
0.755719741
0.760772573
0.765791278
0.770775086
0.775723232
0.780634954
0.785509493
0.790346097
0.795144015
0.799902504
0.804620823
0.809298238
0.813934019
0.818527441
0.823077785
0.827584338
0.832046391
0.836463243
0.840834198
0.845158566
0.849435662
0.853664812
0.857845343
0.861976592
0.866057902
0.870088624
0.874068115
0.87799574
0.88187087
0.885692886
0.889461176
0.893175134
0.896834165
0.900437679
0.903985097
0.907475846
0.910909364
0.914285096
0.917602496
0.920861027
0.92406016
0.927199378
0.93027817
0.933296037
0.936252486
0.939147038
0.94197922
0.94474857
0.947454638
0.950096979
0.952675164
0.955188769
0.957637383
0.960020606
0.962338047
0.964589325
0.96677407
0.968891925
0.970942541
0.97292558
0.974840717
0.976687636
0.978466033
0.980175615
0.9818161
0.983387217
0.984888707
0.986320323
0.987681827
0.988972995
0.990193613
0.99134348
0.992422405
0.993430211
0.994366729
0.995231805
0.996025297
0.996747071
0.99739701
0.997975004
0.998480959
0.998914791
0.999276427
0.999565808
0.999782886
0.999927625
1
1
0.999927625
0.999782886
0.999565808
0.999276427
0.998914791
0.998480959
0.997975004
0.99739701
0.996747071
0.996025297
0.995231805
0.994366729
0.993430211
0.992422405
0.99134348
0.990193613
0.988972995
0.987681827
0.986320323
0.984888707
0.983387217
0.9818161
0.980175615
0.978466033
0.976687636
0.974840717
0.97292558
0.970942541
0.968891925
0.96677407
0.964589325
0.962338047
0.960020606
0.957637383
0.955188769
0.952675164
0.950096979
0.947454638
0.94474857
0.94197922
0.939147038
0.936252486
0.933296037
0.93027817
0.927199378
0.92406016
0.920861027
0.917602496
0.914285096
0.910909364
0.907475846
0.903985097
0.900437679
0.896834165
0.893175134
0.889461176
0.885692886
0.88187087
0.87799574
0.874068115
0.870088624
0.866057902
0.861976592
0.857845343
0.853664812
0.849435662
0.845158566
0.840834198
0.836463243
0.832046391
0.827584338
0.823077785
0.818527441
0.813934019
0.809298238
0.804620823
0.799902504
0.795144015
0.790346097
0.785509493
0.780634954
0.775723232
0.770775086
0.765791278
0.760772573
0.755719741
0.750633557
0.745514796
0.74036424
0.735182671
0.729970876
0.724729644
0.719459767
0.714162039
0.708837256
0.703486218
0.698109726
0.692708581
0.687283588
0.681835553
0.676365282
0.670873584
0.665361268
0.659829144
0.654278022
0.648708713
0.643122028
0.63751878
0.631899779
0.626265837
0.620617764
0.614956372
0.609282469
0.603596864
0.597900366
0.59219378
0.586477913
0.580753567
0.575021546
0.569282649
0.563537675
0.55778742
0.552032677
0.54627424
0.540512895
0.53474943
0.528984627
0.523219267
0.517454126
0.511689979
0.505927594
0.500167739
0.494411177
0.488658665
0.482910958
0.477168807
0.471432957
0.46570415
0.459983122
0.454270606
0.448567328
0.44287401
0.43719137
0.431520118
0.42586096
0.420214598
0.414581724
0.408963029
0.403359196
0.3977709
0.392198813
0.386643598
0.381105915
0.375586414
0.370085739
0.364604529
0.359143416
0.353703022
0.348283965
0.342886855
0.337512294
0.332160878
0.326833195
0.321529824
0.316251338
0.310998302
0.305771273
0.3005708
0.295397424
0.290251678
0.285134087
0.280045167
0.274985427
0.269955367
0.264955478
0.259986244
0.255048138
0.250141627
0.245267167
0.240425207
0.235616187
0.230840537
0.226098679
0.221391025
0.21671798
0.212079939
0.207477286
0.202910399
0.198379645
0.193885382
0.189427958
0.185007715
0.180624981
0.176280079
0.171973319
0.167705005
0.163475429
0.159284874
0.155133616
0.151021919
0.146950038
0.142918219
0.138926698
0.134975704
0.131065453
0.127196153
0.123368004
0.119581195
0.115835906
0.112132307
0.10847056
0.104850817
0.101273219
0.0977379004
0.0942449851
0.0907945874
0.0873868129
0.0840217577
0.0806995087
0.0774201438
0.0741837318
0.0709903323
0.067839996
0.0647327645
0.0616686704
0.0586477378
0.0556699814
0.0527354075
0.0498440135
0.0469957882
0.0441907117
0.0414287556
0.0387098828
0.036034048
0.0334011973
0.0308112688
0.028264192
0.0257598884
0.0232982713
0.0208792461
0.0185027101
0.0161685529
0.013876656
0.0116268935
0.00941913171
0.00725322929
0.00512903756
0.00304640039
0.00100515437
0.00099487113
0.00295385387
0.00487197864
0.00674943716
0.008586428
0.0103831565
0.0121398346
0.0138566808
0.0155339201
0.0171717839
0.0187705097
0.0203303413
0.0218515285
0.0233343268
0.024778998
0.0261858094
0.0275550337
0.0288869494
0.0301818404
0.0314399958
0.0326617098
0.0338472818
0.0349970161
0.036111222
0.0371902132
0.0382343084
0.0392438304
0.0402191068
0.0411604692
0.0420682533
0.042942799
0.0437844502
0.0445935543
0.0453704626
0.0461155299
0.0468291145
0.0475115779
0.0481632849
0.0487846034
0.0493759042
0.049937561
0.0504699502
0.0509734507
0.0514484442
0.0518953143
0.0523144473
0.0527062314
0.0530710568
0.0534093157
0.0537214019
0.0540077109
0.05426864
0.0545045875
0.0547159532
0.0549031382
0.0550665443
0.0552065747
0.0553236331
0.0554181239
0.0554904523
0.0555410239
0.0555702446
0.0555785206
0.0555662583
0.055533864
0.0554817439
0.0554103043
0.0553199508
0.0552110888
0.0550841233
0.0549394583
0.0547774973
0.0545986431
0.0544032973
0.0541918604
0.0539647321
0.0537223105
0.0534649925
0.0531931734
0.0529072472
0.0526076061
0.0522946404
0.0519687388
0.051630288
0.0512796725
0.0509172749
0.0505434754
0.0501586521
0.0497631806
0.0493574338
0.0489417825
0.0485165944
0.0480822347
0.0476390659
0.0471874473
0.0467277354
0.0462602837
0.0457854425
0.0453035589
0.0448149767
0.0443200365
0.0438190754
0.0433124269
0.0428004212
0.0422833846
0.0417616401
0.0412355066
0.0407052993
0.0401713298
0.0396339054
0.0390933297
0.0385499021
0.0380039182
0.0374556692
0.0369054422
0.0363535202
0.0358001817
0.0352457012
0.0346903485
0.0341343894
0.0335780848
0.0330216916
0.0324654619
0.0319096433
0.031354479
0.0308002074
0.0302470623
0.029695273
0.0291450639
0.0285966549
0.0280502611
0.0275060927
0.0269643554
0.0264252499
0.0258889722
0.0253557136
0.0248256602
0.0242989938
0.0237758909
0.0232565234
0.0227410583
0.0222296577
0.0217224788
0.0212196741
0.0207213911
0.0202277726
0.0197389563
0.0192550753
0.0187762578
0.018302627
0.0178343015
0.0173713952
0.0169140168
0.0164622705
0.0160162559
0.0155760675
0.0151417953
0.0147135246
0.014291336
0.0138753055
0.0134655042
0.0130619991
0.0126648523
0.0122741214
0.0118898595
0.0115121153
0.011140933
0.0107763526
0.0104184093
0.0100671344
0.00972255481
0.00938469301
0.00905356747
0.00872919243
0.00841157802
0.0081007303
0.00779665132
0.00749933914
0.00720878789
0.00692498783
0.00664792539
0.00637758323
0.00611394028
0.00585697182
0.00560664948
0.00536294137
0.00512581209
0.00489522278
0.00467113121
0.00445349183
0.0042422558
0.00403737111
0.00383878258
0.00364643195
0.00346025796
0.00328019639
0.00310618011
0.00293813921
0.00277600097
0.00261969001
0.00246912832
0.00232423533
0.00218492798
0.00205112078
0.0019227259
0.00179965321
0.00168181038
0.00156910294
0.00146143433
0.001358706
0.00126081745
0.00116766635
0.00107914855
0.000995158206
0.000915587807
0.000840328283
0.000769269059
0.000702298131
0.000639302138
0.000580166435
0.000524775166
0.000473011336
0.000424756882
0.00037989275
0.000338298962
0.00029985469
0.000264438332
0.000231927578
0.000202199487
0.000175130554
0.000150596786
0.00012847377
0.000108636746
