# Pulseq sequence file
# Created by MATLAB mr toolbox

[VERSION]
major 1
minor 4
revision 0

[DEFINITIONS]
AdcRasterTime 1e-07 
B0 3 
B1pa 0.9 
B1rms 0.785277864 
Bandwidth 499 Hz/px 
BlockDurationRaster 1e-05 
DCsat 0.505928854 
FOV 0.2 0.2 0.008 
GradientRasterTime 1e-05 
M0_offset -300 
RadiofrequencyRasterTime 1e-06 
Trec 0 
Trec_M0 12 
Tsat 3.2184 
n_pulses 80 
num_meas 56 
offsets_ppm -300 -100 -50 -40 -30 -20 -10 -9.5 -9 -8.5 -8 -7.5 -7 -6.5 -6 -5.5 -5 -4.5 -4 -3.5 -3 -2.5 -2 -1.5 -1 -0.6 -0.4 -0.2 0 0.2 0.4 0.6 1 1.5 2 2.5 3 3.5 4 4.5 5 5.5 6 6.5 7 7.5 8 8.5 9 9.5 10 20 30 40 50 100 
seq_id_string MultiPool_3T_002_0p9uT_80Gauss_DC50_3200ms_deepCEST 
spoiling 1 
td 0.02 
tp 0.02048 

# Format of blocks:
# NUM DUR RF  GX  GY  GZ  ADC  EXT
[BLOCKS]
    1 1200000   0   0   0   0  0  0
    2 2061   1   0   0   0  0  0
    3 2000   0   0   0   0  0  0
    4 2061   2   0   0   0  0  0
    5 2000   0   0   0   0  0  0
    6 2061   3   0   0   0  0  0
    7 2000   0   0   0   0  0  0
    8 2061   4   0   0   0  0  0
    9 2000   0   0   0   0  0  0
   10 2061   5   0   0   0  0  0
   11 2000   0   0   0   0  0  0
   12 2061   6   0   0   0  0  0
   13 2000   0   0   0   0  0  0
   14 2061   7   0   0   0  0  0
   15 2000   0   0   0   0  0  0
   16 2061   8   0   0   0  0  0
   17 2000   0   0   0   0  0  0
   18 2061   9   0   0   0  0  0
   19 2000   0   0   0   0  0  0
   20 2061  10   0   0   0  0  0
   21 2000   0   0   0   0  0  0
   22 2061  11   0   0   0  0  0
   23 2000   0   0   0   0  0  0
   24 2061  12   0   0   0  0  0
   25 2000   0   0   0   0  0  0
   26 2061  13   0   0   0  0  0
   27 2000   0   0   0   0  0  0
   28 2061  14   0   0   0  0  0
   29 2000   0   0   0   0  0  0
   30 2061  15   0   0   0  0  0
   31 2000   0   0   0   0  0  0
   32 2061  16   0   0   0  0  0
   33 2000   0   0   0   0  0  0
   34 2061  17   0   0   0  0  0
   35 2000   0   0   0   0  0  0
   36 2061  18   0   0   0  0  0
   37 2000   0   0   0   0  0  0
   38 2061  19   0   0   0  0  0
   39 2000   0   0   0   0  0  0
   40 2061  20   0   0   0  0  0
   41 2000   0   0   0   0  0  0
   42 2061  21   0   0   0  0  0
   43 2000   0   0   0   0  0  0
   44 2061  22   0   0   0  0  0
   45 2000   0   0   0   0  0  0
   46 2061  23   0   0   0  0  0
   47 2000   0   0   0   0  0  0
   48 2061  24   0   0   0  0  0
   49 2000   0   0   0   0  0  0
   50 2061  25   0   0   0  0  0
   51 2000   0   0   0   0  0  0
   52 2061  26   0   0   0  0  0
   53 2000   0   0   0   0  0  0
   54 2061  27   0   0   0  0  0
   55 2000   0   0   0   0  0  0
   56 2061  28   0   0   0  0  0
   57 2000   0   0   0   0  0  0
   58 2061  29   0   0   0  0  0
   59 2000   0   0   0   0  0  0
   60 2061  30   0   0   0  0  0
   61 2000   0   0   0   0  0  0
   62 2061  31   0   0   0  0  0
   63 2000   0   0   0   0  0  0
   64 2061  32   0   0   0  0  0
   65 2000   0   0   0   0  0  0
   66 2061  33   0   0   0  0  0
   67 2000   0   0   0   0  0  0
   68 2061  34   0   0   0  0  0
   69 2000   0   0   0   0  0  0
   70 2061  35   0   0   0  0  0
   71 2000   0   0   0   0  0  0
   72 2061  36   0   0   0  0  0
   73 2000   0   0   0   0  0  0
   74 2061  37   0   0   0  0  0
   75 2000   0   0   0   0  0  0
   76 2061  38   0   0   0  0  0
   77 2000   0   0   0   0  0  0
   78 2061  39   0   0   0  0  0
   79 2000   0   0   0   0  0  0
   80 2061  40   0   0   0  0  0
   81 2000   0   0   0   0  0  0
   82 2061  41   0   0   0  0  0
   83 2000   0   0   0   0  0  0
   84 2061  42   0   0   0  0  0
   85 2000   0   0   0   0  0  0
   86 2061  43   0   0   0  0  0
   87 2000   0   0   0   0  0  0
   88 2061  44   0   0   0  0  0
   89 2000   0   0   0   0  0  0
   90 2061  45   0   0   0  0  0
   91 2000   0   0   0   0  0  0
   92 2061  46   0   0   0  0  0
   93 2000   0   0   0   0  0  0
   94 2061  47   0   0   0  0  0
   95 2000   0   0   0   0  0  0
   96 2061  48   0   0   0  0  0
   97 2000   0   0   0   0  0  0
   98 2061  49   0   0   0  0  0
   99 2000   0   0   0   0  0  0
  100 2061  50   0   0   0  0  0
  101 2000   0   0   0   0  0  0
  102 2061  51   0   0   0  0  0
  103 2000   0   0   0   0  0  0
  104 2061  52   0   0   0  0  0
  105 2000   0   0   0   0  0  0
  106 2061  53   0   0   0  0  0
  107 2000   0   0   0   0  0  0
  108 2061  54   0   0   0  0  0
  109 2000   0   0   0   0  0  0
  110 2061  55   0   0   0  0  0
  111 2000   0   0   0   0  0  0
  112 2061  56   0   0   0  0  0
  113 2000   0   0   0   0  0  0
  114 2061  57   0   0   0  0  0
  115 2000   0   0   0   0  0  0
  116 2061  58   0   0   0  0  0
  117 2000   0   0   0   0  0  0
  118 2061  59   0   0   0  0  0
  119 2000   0   0   0   0  0  0
  120 2061  60   0   0   0  0  0
  121 2000   0   0   0   0  0  0
  122 2061  61   0   0   0  0  0
  123 2000   0   0   0   0  0  0
  124 2061  62   0   0   0  0  0
  125 2000   0   0   0   0  0  0
  126 2061  63   0   0   0  0  0
  127 2000   0   0   0   0  0  0
  128 2061  64   0   0   0  0  0
  129 2000   0   0   0   0  0  0
  130 2061  65   0   0   0  0  0
  131 2000   0   0   0   0  0  0
  132 2061  66   0   0   0  0  0
  133 2000   0   0   0   0  0  0
  134 2061  67   0   0   0  0  0
  135 2000   0   0   0   0  0  0
  136 2061  68   0   0   0  0  0
  137 2000   0   0   0   0  0  0
  138 2061  69   0   0   0  0  0
  139 2000   0   0   0   0  0  0
  140 2061  70   0   0   0  0  0
  141 2000   0   0   0   0  0  0
  142 2061  71   0   0   0  0  0
  143 2000   0   0   0   0  0  0
  144 2061  72   0   0   0  0  0
  145 2000   0   0   0   0  0  0
  146 2061  73   0   0   0  0  0
  147 2000   0   0   0   0  0  0
  148 2061  74   0   0   0  0  0
  149 2000   0   0   0   0  0  0
  150 2061  75   0   0   0  0  0
  151 2000   0   0   0   0  0  0
  152 2061  76   0   0   0  0  0
  153 2000   0   0   0   0  0  0
  154 2061  77   0   0   0  0  0
  155 2000   0   0   0   0  0  0
  156 2061  78   0   0   0  0  0
  157 2000   0   0   0   0  0  0
  158 2061  79   0   0   0  0  0
  159 2000   0   0   0   0  0  0
  160 2061  80   0   0   0  0  0
  161 650   0   1   1   1  0  0
  162   0   0   0   0   0  0  0
  163  36   0   0   0   2  0  0
  164 116  81   0   0   3  0  0
  165  36   0   0   0   2  0  0
  166  58   0   0   0   0  0  0
  167  66   0   4   0   0  0  0
  168 206   0   5   0   0  1  0
  169  78   0   6   0   0  0  0
  170  10   0   0   0   0  0  0
  171  36   0   0   0   2  0  0
  172 116  82   0   0   3  0  0
  173  36   0   0   0   2  0  0
  174  58   0   0   0   0  0  0
  175  66   0   4   7   0  0  0
  176 206   0   5   0   0  2  0
  177  78   0   6   8   0  0  0
  178  10   0   0   0   0  0  0
  179  36   0   0   0   2  0  0
  180 116  83   0   0   3  0  0
  181  36   0   0   0   2  0  0
  182  58   0   0   0   0  0  0
  183  66   0   4   9   0  0  0
  184 206   0   5   0   0  3  0
  185  78   0   6  10   0  0  0
  186  10   0   0   0   0  0  0
  187  36   0   0   0   2  0  0
  188 116  84   0   0   3  0  0
  189  36   0   0   0   2  0  0
  190  58   0   0   0   0  0  0
  191  66   0   4  11   0  0  0
  192 206   0   5   0   0  4  0
  193  78   0   6  12   0  0  0
  194  10   0   0   0   0  0  0
  195  36   0   0   0   2  0  0
  196 116  85   0   0   3  0  0
  197  36   0   0   0   2  0  0
  198  58   0   0   0   0  0  0
  199  66   0   4  13   0  0  0
  200 206   0   5   0   0  5  0
  201  78   0   6  14   0  0  0
  202  10   0   0   0   0  0  0
  203  36   0   0   0   2  0  0
  204 116  86   0   0   3  0  0
  205  36   0   0   0   2  0  0
  206  58   0   0   0   0  0  0
  207  66   0   4  15   0  0  0
  208 206   0   5   0   0  6  0
  209  78   0   6  16   0  0  0
  210  10   0   0   0   0  0  0
  211  36   0   0   0   2  0  0
  212 116  87   0   0   3  0  0
  213  36   0   0   0   2  0  0
  214  58   0   0   0   0  0  0
  215  66   0   4  17   0  0  0
  216 206   0   5   0   0  7  0
  217  78   0   6  18   0  0  0
  218  10   0   0   0   0  0  0
  219  36   0   0   0   2  0  0
  220 116  88   0   0   3  0  0
  221  36   0   0   0   2  0  0
  222  58   0   0   0   0  0  0
  223  66   0   4  19   0  0  0
  224 206   0   5   0   0  8  0
  225  78   0   6  20   0  0  0
  226  10   0   0   0   0  0  0
  227  36   0   0   0   2  0  0
  228 116  84   0   0   3  0  0
  229  36   0   0   0   2  0  0
  230  58   0   0   0   0  0  0
  231  66   0   4  21   0  0  0
  232 206   0   5   0   0  4  0
  233  78   0   6  22   0  0  0
  234  10   0   0   0   0  0  0
  235  36   0   0   0   2  0  0
  236 116  86   0   0   3  0  0
  237  36   0   0   0   2  0  0
  238  58   0   0   0   0  0  0
  239  66   0   4  23   0  0  0
  240 206   0   5   0   0  6  0
  241  78   0   6  24   0  0  0
  242  10   0   0   0   0  0  0
  243  36   0   0   0   2  0  0
  244 116  89   0   0   3  0  0
  245  36   0   0   0   2  0  0
  246  58   0   0   0   0  0  0
  247  66   0   4  25   0  0  0
  248 206   0   5   0   0  9  0
  249  78   0   6  26   0  0  0
  250  10   0   0   0   0  0  0
  251  36   0   0   0   2  0  0
  252 116  84   0   0   3  0  0
  253  36   0   0   0   2  0  0
  254  58   0   0   0   0  0  0
  255  66   0   4  27   0  0  0
  256 206   0   5   0   0  4  0
  257  78   0   6  28   0  0  0
  258  10   0   0   0   0  0  0
  259  36   0   0   0   2  0  0
  260 116  90   0   0   3  0  0
  261  36   0   0   0   2  0  0
  262  58   0   0   0   0  0  0
  263  66   0   4  29   0  0  0
  264 206   0   5   0   0 10  0
  265  78   0   6  30   0  0  0
  266  10   0   0   0   0  0  0
  267  36   0   0   0   2  0  0
  268 116  82   0   0   3  0  0
  269  36   0   0   0   2  0  0
  270  58   0   0   0   0  0  0
  271  66   0   4  31   0  0  0
  272 206   0   5   0   0  2  0
  273  78   0   6  32   0  0  0
  274  10   0   0   0   0  0  0
  275  36   0   0   0   2  0  0
  276 116  86   0   0   3  0  0
  277  36   0   0   0   2  0  0
  278  58   0   0   0   0  0  0
  279  66   0   4  33   0  0  0
  280 206   0   5   0   0  6  0
  281  78   0   6  34   0  0  0
  282  10   0   0   0   0  0  0
  283  36   0   0   0   2  0  0
[RF]
1      76.9519 1 2 0 100 -38318.8 0
2      76.9519 1 2 0 100 -38318.8 1.69718
3      76.9519 1 2 0 100 -38318.8 3.39435
4      76.9519 1 2 0 100 -38318.8 5.09153
5      76.9519 1 2 0 100 -38318.8 0.505519
6      76.9519 1 2 0 100 -38318.8 2.2027
7      76.9519 1 2 0 100 -38318.8 3.89987
8      76.9519 1 2 0 100 -38318.8 5.59705
9      76.9519 1 2 0 100 -38318.8 1.01104
10      76.9519 1 2 0 100 -38318.8 2.70821
11      76.9519 1 2 0 100 -38318.8 4.40539
12      76.9519 1 2 0 100 -38318.8 6.10257
13      76.9519 1 2 0 100 -38318.8 1.51656
14      76.9519 1 2 0 100 -38318.8 3.21373
15      76.9519 1 2 0 100 -38318.8 4.91091
16      76.9519 1 2 0 100 -38318.8 0.3249
17      76.9519 1 2 0 100 -38318.8 2.02208
18      76.9519 1 2 0 100 -38318.8 3.71925
19      76.9519 1 2 0 100 -38318.8 5.41643
20      76.9519 1 2 0 100 -38318.8 0.830419
21      76.9519 1 2 0 100 -38318.8 2.52759
22      76.9519 1 2 0 100 -38318.8 4.22477
23      76.9519 1 2 0 100 -38318.8 5.92195
24      76.9519 1 2 0 100 -38318.8 1.33594
25      76.9519 1 2 0 100 -38318.8 3.03311
26      76.9519 1 2 0 100 -38318.8 4.73029
27      76.9519 1 2 0 100 -38318.8 0.144281
28      76.9519 1 2 0 100 -38318.8 1.84146
29      76.9519 1 2 0 100 -38318.8 3.53863
30      76.9519 1 2 0 100 -38318.8 5.23581
31      76.9519 1 2 0 100 -38318.8 0.649799
32      76.9519 1 2 0 100 -38318.8 2.34698
33      76.9519 1 2 0 100 -38318.8 4.04415
34      76.9519 1 2 0 100 -38318.8 5.74133
35      76.9519 1 2 0 100 -38318.8 1.15532
36      76.9519 1 2 0 100 -38318.8 2.85249
37      76.9519 1 2 0 100 -38318.8 4.54967
38      76.9519 1 2 0 100 -38318.8 6.24685
39      76.9519 1 2 0 100 -38318.8 1.66084
40      76.9519 1 2 0 100 -38318.8 3.35801
41      76.9519 1 2 0 100 -38318.8 5.05519
42      76.9519 1 2 0 100 -38318.8 0.46918
43      76.9519 1 2 0 100 -38318.8 2.16636
44      76.9519 1 2 0 100 -38318.8 3.86353
45      76.9519 1 2 0 100 -38318.8 5.56071
46      76.9519 1 2 0 100 -38318.8 0.974699
47      76.9519 1 2 0 100 -38318.8 2.67188
48      76.9519 1 2 0 100 -38318.8 4.36905
49      76.9519 1 2 0 100 -38318.8 6.06623
50      76.9519 1 2 0 100 -38318.8 1.48022
51      76.9519 1 2 0 100 -38318.8 3.17739
52      76.9519 1 2 0 100 -38318.8 4.87457
53      76.9519 1 2 0 100 -38318.8 0.288561
54      76.9519 1 2 0 100 -38318.8 1.98574
55      76.9519 1 2 0 100 -38318.8 3.68291
56      76.9519 1 2 0 100 -38318.8 5.38009
57      76.9519 1 2 0 100 -38318.8 0.79408
58      76.9519 1 2 0 100 -38318.8 2.49126
59      76.9519 1 2 0 100 -38318.8 4.18843
60      76.9519 1 2 0 100 -38318.8 5.88561
61      76.9519 1 2 0 100 -38318.8 1.2996
62      76.9519 1 2 0 100 -38318.8 2.99678
63      76.9519 1 2 0 100 -38318.8 4.69395
64      76.9519 1 2 0 100 -38318.8 0.107942
65      76.9519 1 2 0 100 -38318.8 1.80512
66      76.9519 1 2 0 100 -38318.8 3.50229
67      76.9519 1 2 0 100 -38318.8 5.19947
68      76.9519 1 2 0 100 -38318.8 0.613461
69      76.9519 1 2 0 100 -38318.8 2.31064
70      76.9519 1 2 0 100 -38318.8 4.00781
71      76.9519 1 2 0 100 -38318.8 5.70499
72      76.9519 1 2 0 100 -38318.8 1.11898
73      76.9519 1 2 0 100 -38318.8 2.81616
74      76.9519 1 2 0 100 -38318.8 4.51333
75      76.9519 1 2 0 100 -38318.8 6.21051
76      76.9519 1 2 0 100 -38318.8 1.6245
77      76.9519 1 2 0 100 -38318.8 3.32167
78      76.9519 1 2 0 100 -38318.8 5.01885
79      76.9519 1 2 0 100 -38318.8 0.432842
80      76.9519 1 2 0 100 -38318.8 2.13002
81      76.8015 3 4 0 100 0 1.46608
82      76.8015 3 4 0 100 0 2.93215
83      76.8015 3 4 0 100 0 5.86431
84      76.8015 3 4 0 100 0 3.97935
85      76.8015 3 4 0 100 0 3.56047
86      76.8015 3 4 0 100 0 4.60767
87      76.8015 3 4 0 100 0 0.837758
88      76.8015 3 4 0 100 0 4.81711
89      76.8015 3 4 0 100 0 0.418879
90      76.8015 3 4 0 100 0 2.72271
91      76.8015 3 4 0 100 0 6.07375
92      76.8015 3 4 0 100 0 1.67552
93      76.9519 1 2 0 100 -12772.9 0
94      76.9519 1 2 0 100 -12772.9 2.66012
95      76.9519 1 2 0 100 -12772.9 5.32024
96      76.9519 1 2 0 100 -12772.9 1.69718
97      76.9519 1 2 0 100 -12772.9 4.3573
98      76.9519 1 2 0 100 -12772.9 0.734232
99      76.9519 1 2 0 100 -12772.9 3.39435
100      76.9519 1 2 0 100 -12772.9 6.05447
101      76.9519 1 2 0 100 -12772.9 2.43141
102      76.9519 1 2 0 100 -12772.9 5.09153
103      76.9519 1 2 0 100 -12772.9 1.46846
104      76.9519 1 2 0 100 -12772.9 4.12858
105      76.9519 1 2 0 100 -12772.9 0.505519
106      76.9519 1 2 0 100 -12772.9 3.16564
107      76.9519 1 2 0 100 -12772.9 5.82576
108      76.9519 1 2 0 100 -12772.9 2.2027
109      76.9519 1 2 0 100 -12772.9 4.86282
110      76.9519 1 2 0 100 -12772.9 1.23975
111      76.9519 1 2 0 100 -12772.9 3.89987
112      76.9519 1 2 0 100 -12772.9 0.276806
113      76.9519 1 2 0 100 -12772.9 2.93693
114      76.9519 1 2 0 100 -12772.9 5.59705
115      76.9519 1 2 0 100 -12772.9 1.97398
116      76.9519 1 2 0 100 -12772.9 4.6341
117      76.9519 1 2 0 100 -12772.9 1.01104
118      76.9519 1 2 0 100 -12772.9 3.67116
119      76.9519 1 2 0 100 -12772.9 0.0480935
120      76.9519 1 2 0 100 -12772.9 2.70821
121      76.9519 1 2 0 100 -12772.9 5.36833
122      76.9519 1 2 0 100 -12772.9 1.74527
123      76.9519 1 2 0 100 -12772.9 4.40539
124      76.9519 1 2 0 100 -12772.9 0.782325
125      76.9519 1 2 0 100 -12772.9 3.44245
126      76.9519 1 2 0 100 -12772.9 6.10257
127      76.9519 1 2 0 100 -12772.9 2.4795
128      76.9519 1 2 0 100 -12772.9 5.13962
129      76.9519 1 2 0 100 -12772.9 1.51656
130      76.9519 1 2 0 100 -12772.9 4.17668
131      76.9519 1 2 0 100 -12772.9 0.553612
132      76.9519 1 2 0 100 -12772.9 3.21373
133      76.9519 1 2 0 100 -12772.9 5.87385
134      76.9519 1 2 0 100 -12772.9 2.25079
135      76.9519 1 2 0 100 -12772.9 4.91091
136      76.9519 1 2 0 100 -12772.9 1.28784
137      76.9519 1 2 0 100 -12772.9 3.94796
138      76.9519 1 2 0 100 -12772.9 0.3249
139      76.9519 1 2 0 100 -12772.9 2.98502
140      76.9519 1 2 0 100 -12772.9 5.64514
141      76.9519 1 2 0 100 -12772.9 2.02208
142      76.9519 1 2 0 100 -12772.9 4.6822
143      76.9519 1 2 0 100 -12772.9 1.05913
144      76.9519 1 2 0 100 -12772.9 3.71925
145      76.9519 1 2 0 100 -12772.9 0.096187
146      76.9519 1 2 0 100 -12772.9 2.75631
147      76.9519 1 2 0 100 -12772.9 5.41643
148      76.9519 1 2 0 100 -12772.9 1.79336
149      76.9519 1 2 0 100 -12772.9 4.45348
150      76.9519 1 2 0 100 -12772.9 0.830419
151      76.9519 1 2 0 100 -12772.9 3.49054
152      76.9519 1 2 0 100 -12772.9 6.15066
153      76.9519 1 2 0 100 -12772.9 2.52759
154      76.9519 1 2 0 100 -12772.9 5.18772
155      76.9519 1 2 0 100 -12772.9 1.56465
156      76.9519 1 2 0 100 -12772.9 4.22477
157      76.9519 1 2 0 100 -12772.9 0.601706
158      76.9519 1 2 0 100 -12772.9 3.26183
159      76.9519 1 2 0 100 -12772.9 5.92195
160      76.9519 1 2 0 100 -12772.9 2.29888
161      76.9519 1 2 0 100 -12772.9 4.959
162      76.9519 1 2 0 100 -12772.9 1.33594
163      76.9519 1 2 0 100 -12772.9 3.99606
164      76.9519 1 2 0 100 -12772.9 0.372993
165      76.9519 1 2 0 100 -12772.9 3.03311
166      76.9519 1 2 0 100 -12772.9 5.69323
167      76.9519 1 2 0 100 -12772.9 2.07017
168      76.9519 1 2 0 100 -12772.9 4.73029
169      76.9519 1 2 0 100 -12772.9 1.10722
170      76.9519 1 2 0 100 -12772.9 3.76735
171      76.9519 1 2 0 100 -12772.9 0.144281
172      76.9519 1 2 0 100 -12772.9 2.8044
173      76.9519 1 2 0 100 -6386.46 0
174      76.9519 1 2 0 100 -6386.46 1.33006
175      76.9519 1 2 0 100 -6386.46 2.66012
176      76.9519 1 2 0 100 -6386.46 3.99018
177      76.9519 1 2 0 100 -6386.46 5.32024
178      76.9519 1 2 0 100 -6386.46 0.367116
179      76.9519 1 2 0 100 -6386.46 1.69718
180      76.9519 1 2 0 100 -6386.46 3.02724
181      76.9519 1 2 0 100 -6386.46 4.3573
182      76.9519 1 2 0 100 -6386.46 5.68736
183      76.9519 1 2 0 100 -6386.46 0.734232
184      76.9519 1 2 0 100 -6386.46 2.06429
185      76.9519 1 2 0 100 -6386.46 3.39435
186      76.9519 1 2 0 100 -6386.46 4.72441
187      76.9519 1 2 0 100 -6386.46 6.05447
188      76.9519 1 2 0 100 -6386.46 1.10135
189      76.9519 1 2 0 100 -6386.46 2.43141
190      76.9519 1 2 0 100 -6386.46 3.76147
191      76.9519 1 2 0 100 -6386.46 5.09153
192      76.9519 1 2 0 100 -6386.46 0.138403
193      76.9519 1 2 0 100 -6386.46 1.46846
194      76.9519 1 2 0 100 -6386.46 2.79852
195      76.9519 1 2 0 100 -6386.46 4.12858
196      76.9519 1 2 0 100 -6386.46 5.45864
197      76.9519 1 2 0 100 -6386.46 0.505519
198      76.9519 1 2 0 100 -6386.46 1.83558
199      76.9519 1 2 0 100 -6386.46 3.16564
200      76.9519 1 2 0 100 -6386.46 4.4957
201      76.9519 1 2 0 100 -6386.46 5.82576
202      76.9519 1 2 0 100 -6386.46 0.872635
203      76.9519 1 2 0 100 -6386.46 2.2027
204      76.9519 1 2 0 100 -6386.46 3.53276
205      76.9519 1 2 0 100 -6386.46 4.86282
206      76.9519 1 2 0 100 -6386.46 6.19288
207      76.9519 1 2 0 100 -6386.46 1.23975
208      76.9519 1 2 0 100 -6386.46 2.56981
209      76.9519 1 2 0 100 -6386.46 3.89987
210      76.9519 1 2 0 100 -6386.46 5.22993
211      76.9519 1 2 0 100 -6386.46 0.276806
212      76.9519 1 2 0 100 -6386.46 1.60687
213      76.9519 1 2 0 100 -6386.46 2.93693
214      76.9519 1 2 0 100 -6386.46 4.26699
215      76.9519 1 2 0 100 -6386.46 5.59705
216      76.9519 1 2 0 100 -6386.46 0.643922
217      76.9519 1 2 0 100 -6386.46 1.97398
218      76.9519 1 2 0 100 -6386.46 3.30404
219      76.9519 1 2 0 100 -6386.46 4.6341
220      76.9519 1 2 0 100 -6386.46 5.96416
221      76.9519 1 2 0 100 -6386.46 1.01104
222      76.9519 1 2 0 100 -6386.46 2.3411
223      76.9519 1 2 0 100 -6386.46 3.67116
224      76.9519 1 2 0 100 -6386.46 5.00122
225      76.9519 1 2 0 100 -6386.46 0.0480935
226      76.9519 1 2 0 100 -6386.46 1.37815
227      76.9519 1 2 0 100 -6386.46 2.70821
228      76.9519 1 2 0 100 -6386.46 4.03827
229      76.9519 1 2 0 100 -6386.46 5.36833
230      76.9519 1 2 0 100 -6386.46 0.415209
231      76.9519 1 2 0 100 -6386.46 1.74527
232      76.9519 1 2 0 100 -6386.46 3.07533
233      76.9519 1 2 0 100 -6386.46 4.40539
234      76.9519 1 2 0 100 -6386.46 5.73545
235      76.9519 1 2 0 100 -6386.46 0.782325
236      76.9519 1 2 0 100 -6386.46 2.11239
237      76.9519 1 2 0 100 -6386.46 3.44245
238      76.9519 1 2 0 100 -6386.46 4.77251
239      76.9519 1 2 0 100 -6386.46 6.10257
240      76.9519 1 2 0 100 -6386.46 1.14944
241      76.9519 1 2 0 100 -6386.46 2.4795
242      76.9519 1 2 0 100 -6386.46 3.80956
243      76.9519 1 2 0 100 -6386.46 5.13962
244      76.9519 1 2 0 100 -6386.46 0.186497
245      76.9519 1 2 0 100 -6386.46 1.51656
246      76.9519 1 2 0 100 -6386.46 2.84662
247      76.9519 1 2 0 100 -6386.46 4.17668
248      76.9519 1 2 0 100 -6386.46 5.50674
249      76.9519 1 2 0 100 -6386.46 0.553612
250      76.9519 1 2 0 100 -6386.46 1.88367
251      76.9519 1 2 0 100 -6386.46 3.21373
252      76.9519 1 2 0 100 -6386.46 4.54379
253      76.9519 1 2 0 100 -5109.17 0
254      76.9519 1 2 0 100 -5109.17 2.32069
255      76.9519 1 2 0 100 -5109.17 4.64137
256      76.9519 1 2 0 100 -5109.17 0.67887
257      76.9519 1 2 0 100 -5109.17 2.99956
258      76.9519 1 2 0 100 -5109.17 5.32024
259      76.9519 1 2 0 100 -5109.17 1.35774
260      76.9519 1 2 0 100 -5109.17 3.67843
261      76.9519 1 2 0 100 -5109.17 5.99911
262      76.9519 1 2 0 100 -5109.17 2.03661
263      76.9519 1 2 0 100 -5109.17 4.3573
264      76.9519 1 2 0 100 -5109.17 0.394796
265      76.9519 1 2 0 100 -5109.17 2.71548
266      76.9519 1 2 0 100 -5109.17 5.03617
267      76.9519 1 2 0 100 -5109.17 1.07367
268      76.9519 1 2 0 100 -5109.17 3.39435
269      76.9519 1 2 0 100 -5109.17 5.71504
270      76.9519 1 2 0 100 -5109.17 1.75254
271      76.9519 1 2 0 100 -5109.17 4.07322
272      76.9519 1 2 0 100 -5109.17 0.110722
273      76.9519 1 2 0 100 -5109.17 2.43141
274      76.9519 1 2 0 100 -5109.17 4.75209
275      76.9519 1 2 0 100 -5109.17 0.789593
276      76.9519 1 2 0 100 -5109.17 3.11028
277      76.9519 1 2 0 100 -5109.17 5.43096
278      76.9519 1 2 0 100 -5109.17 1.46846
279      76.9519 1 2 0 100 -5109.17 3.78915
280      76.9519 1 2 0 100 -5109.17 6.10983
281      76.9519 1 2 0 100 -5109.17 2.14733
282      76.9519 1 2 0 100 -5109.17 4.46802
283      76.9519 1 2 0 100 -5109.17 0.505519
284      76.9519 1 2 0 100 -5109.17 2.8262
285      76.9519 1 2 0 100 -5109.17 5.14689
286      76.9519 1 2 0 100 -5109.17 1.18439
287      76.9519 1 2 0 100 -5109.17 3.50507
288      76.9519 1 2 0 100 -5109.17 5.82576
289      76.9519 1 2 0 100 -5109.17 1.86326
290      76.9519 1 2 0 100 -5109.17 4.18395
291      76.9519 1 2 0 100 -5109.17 0.221445
292      76.9519 1 2 0 100 -5109.17 2.54213
293      76.9519 1 2 0 100 -5109.17 4.86282
294      76.9519 1 2 0 100 -5109.17 0.900315
295      76.9519 1 2 0 100 -5109.17 3.221
296      76.9519 1 2 0 100 -5109.17 5.54169
297      76.9519 1 2 0 100 -5109.17 1.57919
298      76.9519 1 2 0 100 -5109.17 3.89987
299      76.9519 1 2 0 100 -5109.17 6.22056
300      76.9519 1 2 0 100 -5109.17 2.25806
301      76.9519 1 2 0 100 -5109.17 4.57874
302      76.9519 1 2 0 100 -5109.17 0.616241
303      76.9519 1 2 0 100 -5109.17 2.93693
304      76.9519 1 2 0 100 -5109.17 5.25761
305      76.9519 1 2 0 100 -5109.17 1.29511
306      76.9519 1 2 0 100 -5109.17 3.6158
307      76.9519 1 2 0 100 -5109.17 5.93648
308      76.9519 1 2 0 100 -5109.17 1.97398
309      76.9519 1 2 0 100 -5109.17 4.29467
310      76.9519 1 2 0 100 -5109.17 0.332167
311      76.9519 1 2 0 100 -5109.17 2.65285
312      76.9519 1 2 0 100 -5109.17 4.97354
313      76.9519 1 2 0 100 -5109.17 1.01104
314      76.9519 1 2 0 100 -5109.17 3.33172
315      76.9519 1 2 0 100 -5109.17 5.65241
316      76.9519 1 2 0 100 -5109.17 1.68991
317      76.9519 1 2 0 100 -5109.17 4.01059
318      76.9519 1 2 0 100 -5109.17 0.0480935
319      76.9519 1 2 0 100 -5109.17 2.36878
320      76.9519 1 2 0 100 -5109.17 4.68946
321      76.9519 1 2 0 100 -5109.17 0.726964
322      76.9519 1 2 0 100 -5109.17 3.04765
323      76.9519 1 2 0 100 -5109.17 5.36833
324      76.9519 1 2 0 100 -5109.17 1.40583
325      76.9519 1 2 0 100 -5109.17 3.72652
326      76.9519 1 2 0 100 -5109.17 6.0472
327      76.9519 1 2 0 100 -5109.17 2.0847
328      76.9519 1 2 0 100 -5109.17 4.40539
329      76.9519 1 2 0 100 -5109.17 0.44289
330      76.9519 1 2 0 100 -5109.17 2.76358
331      76.9519 1 2 0 100 -5109.17 5.08426
332      76.9519 1 2 0 100 -5109.17 1.12176
333      76.9519 1 2 0 100 -3831.88 0
334      76.9519 1 2 0 100 -3831.88 3.31131
335      76.9519 1 2 0 100 -3831.88 0.339435
336      76.9519 1 2 0 100 -3831.88 3.65075
337      76.9519 1 2 0 100 -3831.88 0.67887
338      76.9519 1 2 0 100 -3831.88 3.99018
339      76.9519 1 2 0 100 -3831.88 1.01831
340      76.9519 1 2 0 100 -3831.88 4.32962
341      76.9519 1 2 0 100 -3831.88 1.35774
342      76.9519 1 2 0 100 -3831.88 4.66905
343      76.9519 1 2 0 100 -3831.88 1.69718
344      76.9519 1 2 0 100 -3831.88 5.00849
345      76.9519 1 2 0 100 -3831.88 2.03661
346      76.9519 1 2 0 100 -3831.88 5.34792
347      76.9519 1 2 0 100 -3831.88 2.37605
348      76.9519 1 2 0 100 -3831.88 5.68736
349      76.9519 1 2 0 100 -3831.88 2.71548
350      76.9519 1 2 0 100 -3831.88 6.02679
351      76.9519 1 2 0 100 -3831.88 3.05492
352      76.9519 1 2 0 100 -3831.88 0.0830419
353      76.9519 1 2 0 100 -3831.88 3.39435
354      76.9519 1 2 0 100 -3831.88 0.422477
355      76.9519 1 2 0 100 -3831.88 3.73379
356      76.9519 1 2 0 100 -3831.88 0.761912
357      76.9519 1 2 0 100 -3831.88 4.07322
358      76.9519 1 2 0 100 -3831.88 1.10135
359      76.9519 1 2 0 100 -3831.88 4.41266
360      76.9519 1 2 0 100 -3831.88 1.44078
361      76.9519 1 2 0 100 -3831.88 4.75209
362      76.9519 1 2 0 100 -3831.88 1.78022
363      76.9519 1 2 0 100 -3831.88 5.09153
364      76.9519 1 2 0 100 -3831.88 2.11965
365      76.9519 1 2 0 100 -3831.88 5.43096
366      76.9519 1 2 0 100 -3831.88 2.45909
367      76.9519 1 2 0 100 -3831.88 5.7704
368      76.9519 1 2 0 100 -3831.88 2.79852
369      76.9519 1 2 0 100 -3831.88 6.10983
370      76.9519 1 2 0 100 -3831.88 3.13796
371      76.9519 1 2 0 100 -3831.88 0.166084
372      76.9519 1 2 0 100 -3831.88 3.47739
373      76.9519 1 2 0 100 -3831.88 0.505519
374      76.9519 1 2 0 100 -3831.88 3.81683
375      76.9519 1 2 0 100 -3831.88 0.844954
376      76.9519 1 2 0 100 -3831.88 4.15626
377      76.9519 1 2 0 100 -3831.88 1.18439
378      76.9519 1 2 0 100 -3831.88 4.4957
379      76.9519 1 2 0 100 -3831.88 1.52382
380      76.9519 1 2 0 100 -3831.88 4.83513
381      76.9519 1 2 0 100 -3831.88 1.86326
382      76.9519 1 2 0 100 -3831.88 5.17457
383      76.9519 1 2 0 100 -3831.88 2.2027
384      76.9519 1 2 0 100 -3831.88 5.51401
385      76.9519 1 2 0 100 -3831.88 2.54213
386      76.9519 1 2 0 100 -3831.88 5.85344
387      76.9519 1 2 0 100 -3831.88 2.88157
388      76.9519 1 2 0 100 -3831.88 6.19288
389      76.9519 1 2 0 100 -3831.88 3.221
390      76.9519 1 2 0 100 -3831.88 0.249126
391      76.9519 1 2 0 100 -3831.88 3.56044
392      76.9519 1 2 0 100 -3831.88 0.588561
393      76.9519 1 2 0 100 -3831.88 3.89987
394      76.9519 1 2 0 100 -3831.88 0.927996
395      76.9519 1 2 0 100 -3831.88 4.23931
396      76.9519 1 2 0 100 -3831.88 1.26743
397      76.9519 1 2 0 100 -3831.88 4.57874
398      76.9519 1 2 0 100 -3831.88 1.60687
399      76.9519 1 2 0 100 -3831.88 4.91818
400      76.9519 1 2 0 100 -3831.88 1.9463
401      76.9519 1 2 0 100 -3831.88 5.25761
402      76.9519 1 2 0 100 -3831.88 2.28574
403      76.9519 1 2 0 100 -3831.88 5.59705
404      76.9519 1 2 0 100 -3831.88 2.62517
405      76.9519 1 2 0 100 -3831.88 5.93648
406      76.9519 1 2 0 100 -3831.88 2.96461
407      76.9519 1 2 0 100 -3831.88 6.27592
408      76.9519 1 2 0 100 -3831.88 3.30404
409      76.9519 1 2 0 100 -3831.88 0.332167
410      76.9519 1 2 0 100 -3831.88 3.64348
411      76.9519 1 2 0 100 -3831.88 0.671603
412      76.9519 1 2 0 100 -3831.88 3.98291
413      76.9519 1 2 0 100 -2554.58 0
414      76.9519 1 2 0 100 -2554.58 4.30194
415      76.9519 1 2 0 100 -2554.58 2.32069
416      76.9519 1 2 0 100 -2554.58 0.339435
417      76.9519 1 2 0 100 -2554.58 4.64137
418      76.9519 1 2 0 100 -2554.58 2.66012
419      76.9519 1 2 0 100 -2554.58 0.67887
420      76.9519 1 2 0 100 -2554.58 4.98081
421      76.9519 1 2 0 100 -2554.58 2.99956
422      76.9519 1 2 0 100 -2554.58 1.01831
423      76.9519 1 2 0 100 -2554.58 5.32024
424      76.9519 1 2 0 100 -2554.58 3.33899
425      76.9519 1 2 0 100 -2554.58 1.35774
426      76.9519 1 2 0 100 -2554.58 5.65968
427      76.9519 1 2 0 100 -2554.58 3.67843
428      76.9519 1 2 0 100 -2554.58 1.69718
429      76.9519 1 2 0 100 -2554.58 5.99911
430      76.9519 1 2 0 100 -2554.58 4.01786
431      76.9519 1 2 0 100 -2554.58 2.03661
432      76.9519 1 2 0 100 -2554.58 0.0553612
433      76.9519 1 2 0 100 -2554.58 4.3573
434      76.9519 1 2 0 100 -2554.58 2.37605
435      76.9519 1 2 0 100 -2554.58 0.394796
436      76.9519 1 2 0 100 -2554.58 4.69673
437      76.9519 1 2 0 100 -2554.58 2.71548
438      76.9519 1 2 0 100 -2554.58 0.734232
439      76.9519 1 2 0 100 -2554.58 5.03617
440      76.9519 1 2 0 100 -2554.58 3.05492
441      76.9519 1 2 0 100 -2554.58 1.07367
442      76.9519 1 2 0 100 -2554.58 5.3756
443      76.9519 1 2 0 100 -2554.58 3.39435
444      76.9519 1 2 0 100 -2554.58 1.4131
445      76.9519 1 2 0 100 -2554.58 5.71504
446      76.9519 1 2 0 100 -2554.58 3.73379
447      76.9519 1 2 0 100 -2554.58 1.75254
448      76.9519 1 2 0 100 -2554.58 6.05447
449      76.9519 1 2 0 100 -2554.58 4.07322
450      76.9519 1 2 0 100 -2554.58 2.09197
451      76.9519 1 2 0 100 -2554.58 0.110722
452      76.9519 1 2 0 100 -2554.58 4.41266
453      76.9519 1 2 0 100 -2554.58 2.43141
454      76.9519 1 2 0 100 -2554.58 0.450158
455      76.9519 1 2 0 100 -2554.58 4.75209
456      76.9519 1 2 0 100 -2554.58 2.77084
457      76.9519 1 2 0 100 -2554.58 0.789593
458      76.9519 1 2 0 100 -2554.58 5.09153
