# Pulseq sequence file
# Created by MATLAB mr toolbox

# Created for Pulseq-CEST
# https://pulseq-cest.github.io/
# Created by: Kai Herz
# Created at: 28-Sep-2021 14:37:10

[VERSION]
major 1
minor 3
revision 1

[DEFINITIONS]
B0 7 
B1cwpe 1.00689131 
DCsat 0.666666667 
Trec 2 
Tsat 2.375 
n_pulses 32 
num_meas 10 
offsets_ppm 1.2 1.2 1.2 1.2 1.2 1.2 1.2 1.2 1.2 1.2 
seq_id_string DGE_7T_001_1uT_32SincGauss_DC66_2375ms_braintumor 
td 0.025 
tp 0.05 

# Format of blocks:
#  #  D RF  GX  GY  GZ ADC EXT
[BLOCKS]
  1  1  0   0   0   0  0  0
  2  0  1   0   0   0  0  0
  3  2  0   0   0   0  0  0
  4  0  2   0   0   0  0  0
  5  2  0   0   0   0  0  0
  6  0  3   0   0   0  0  0
  7  2  0   0   0   0  0  0
  8  0  4   0   0   0  0  0
  9  2  0   0   0   0  0  0
 10  0  5   0   0   0  0  0
 11  2  0   0   0   0  0  0
 12  0  6   0   0   0  0  0
 13  2  0   0   0   0  0  0
 14  0  7   0   0   0  0  0
 15  2  0   0   0   0  0  0
 16  0  8   0   0   0  0  0
 17  2  0   0   0   0  0  0
 18  0  9   0   0   0  0  0
 19  2  0   0   0   0  0  0
 20  0 10   0   0   0  0  0
 21  2  0   0   0   0  0  0
 22  0 11   0   0   0  0  0
 23  2  0   0   0   0  0  0
 24  0 12   0   0   0  0  0
 25  2  0   0   0   0  0  0
 26  0 13   0   0   0  0  0
 27  2  0   0   0   0  0  0
 28  0 14   0   0   0  0  0
 29  2  0   0   0   0  0  0
 30  0 15   0   0   0  0  0
 31  2  0   0   0   0  0  0
 32  0 16   0   0   0  0  0
 33  2  0   0   0   0  0  0
 34  0 17   0   0   0  0  0
 35  2  0   0   0   0  0  0
 36  0 18   0   0   0  0  0
 37  2  0   0   0   0  0  0
 38  0 19   0   0   0  0  0
 39  2  0   0   0   0  0  0
 40  0 20   0   0   0  0  0
 41  2  0   0   0   0  0  0
 42  0 21   0   0   0  0  0
 43  2  0   0   0   0  0  0
 44  0 22   0   0   0  0  0
 45  2  0   0   0   0  0  0
 46  0 23   0   0   0  0  0
 47  2  0   0   0   0  0  0
 48  0 24   0   0   0  0  0
 49  2  0   0   0   0  0  0
 50  0 25   0   0   0  0  0
 51  2  0   0   0   0  0  0
 52  0 26   0   0   0  0  0
 53  2  0   0   0   0  0  0
 54  0 27   0   0   0  0  0
 55  2  0   0   0   0  0  0
 56  0 28   0   0   0  0  0
 57  2  0   0   0   0  0  0
 58  0 29   0   0   0  0  0
 59  2  0   0   0   0  0  0
 60  0 30   0   0   0  0  0
 61  2  0   0   0   0  0  0
 62  0 31   0   0   0  0  0
 63  2  0   0   0   0  0  0
 64  0 32   0   0   0  0  0
 65  0  0   1   1   1  0  0
 66  0  0   0   0   0  1  0
 67  1  0   0   0   0  0  0
 68  0  1   0   0   0  0  0
 69  2  0   0   0   0  0  0
 70  0  2   0   0   0  0  0
 71  2  0   0   0   0  0  0
 72  0  3   0   0   0  0  0
 73  2  0   0   0   0  0  0
 74  0  4   0   0   0  0  0
 75  2  0   0   0   0  0  0
 76  0  5   0   0   0  0  0
 77  2  0   0   0   0  0  0
 78  0  6   0   0   0  0  0
 79  2  0   0   0   0  0  0
 80  0  7   0   0   0  0  0
 81  2  0   0   0   0  0  0
 82  0  8   0   0   0  0  0
 83  2  0   0   0   0  0  0
 84  0  9   0   0   0  0  0
 85  2  0   0   0   0  0  0
 86  0 10   0   0   0  0  0
 87  2  0   0   0   0  0  0
 88  0 11   0   0   0  0  0
 89  2  0   0   0   0  0  0
 90  0 12   0   0   0  0  0
 91  2  0   0   0   0  0  0
 92  0 13   0   0   0  0  0
 93  2  0   0   0   0  0  0
 94  0 14   0   0   0  0  0
 95  2  0   0   0   0  0  0
 96  0 15   0   0   0  0  0
 97  2  0   0   0   0  0  0
 98  0 16   0   0   0  0  0
 99  2  0   0   0   0  0  0
100  0 17   0   0   0  0  0
101  2  0   0   0   0  0  0
102  0 18   0   0   0  0  0
103  2  0   0   0   0  0  0
104  0 19   0   0   0  0  0
105  2  0   0   0   0  0  0
106  0 20   0   0   0  0  0
107  2  0   0   0   0  0  0
108  0 21   0   0   0  0  0
109  2  0   0   0   0  0  0
110  0 22   0   0   0  0  0
111  2  0   0   0   0  0  0
112  0 23   0   0   0  0  0
113  2  0   0   0   0  0  0
114  0 24   0   0   0  0  0
115  2  0   0   0   0  0  0
116  0 25   0   0   0  0  0
117  2  0   0   0   0  0  0
118  0 26   0   0   0  0  0
119  2  0   0   0   0  0  0
120  0 27   0   0   0  0  0
121  2  0   0   0   0  0  0
122  0 28   0   0   0  0  0
123  2  0   0   0   0  0  0
124  0 29   0   0   0  0  0
125  2  0   0   0   0  0  0
126  0 30   0   0   0  0  0
127  2  0   0   0   0  0  0
128  0 31   0   0   0  0  0
129  2  0   0   0   0  0  0
130  0 32   0   0   0  0  0
131  0  0   1   1   1  0  0
132  0  0   0   0   0  1  0
133  1  0   0   0   0  0  0
134  0  1   0   0   0  0  0
135  2  0   0   0   0  0  0
136  0  2   0   0   0  0  0
137  2  0   0   0   0  0  0
138  0  3   0   0   0  0  0
139  2  0   0   0   0  0  0
140  0  4   0   0   0  0  0
141  2  0   0   0   0  0  0
142  0  5   0   0   0  0  0
143  2  0   0   0   0  0  0
144  0  6   0   0   0  0  0
145  2  0   0   0   0  0  0
146  0  7   0   0   0  0  0
147  2  0   0   0   0  0  0
148  0  8   0   0   0  0  0
149  2  0   0   0   0  0  0
150  0  9   0   0   0  0  0
151  2  0   0   0   0  0  0
152  0 10   0   0   0  0  0
153  2  0   0   0   0  0  0
154  0 11   0   0   0  0  0
155  2  0   0   0   0  0  0
156  0 12   0   0   0  0  0
157  2  0   0   0   0  0  0
158  0 13   0   0   0  0  0
159  2  0   0   0   0  0  0
160  0 14   0   0   0  0  0
161  2  0   0   0   0  0  0
162  0 15   0   0   0  0  0
163  2  0   0   0   0  0  0
164  0 16   0   0   0  0  0
165  2  0   0   0   0  0  0
166  0 17   0   0   0  0  0
167  2  0   0   0   0  0  0
168  0 18   0   0   0  0  0
169  2  0   0   0   0  0  0
170  0 19   0   0   0  0  0
171  2  0   0   0   0  0  0
172  0 20   0   0   0  0  0
173  2  0   0   0   0  0  0
174  0 21   0   0   0  0  0
175  2  0   0   0   0  0  0
176  0 22   0   0   0  0  0
177  2  0   0   0   0  0  0
178  0 23   0   0   0  0  0
179  2  0   0   0   0  0  0
180  0 24   0   0   0  0  0
181  2  0   0   0   0  0  0
182  0 25   0   0   0  0  0
183  2  0   0   0   0  0  0
184  0 26   0   0   0  0  0
185  2  0   0   0   0  0  0
186  0 27   0   0   0  0  0
187  2  0   0   0   0  0  0
188  0 28   0   0   0  0  0
189  2  0   0   0   0  0  0
190  0 29   0   0   0  0  0
191  2  0   0   0   0  0  0
192  0 30   0   0   0  0  0
193  2  0   0   0   0  0  0
194  0 31   0   0   0  0  0
195  2  0   0   0   0  0  0
196  0 32   0   0   0  0  0
197  0  0   1   1   1  0  0
198  0  0   0   0   0  1  0
199  1  0   0   0   0  0  0
200  0  1   0   0   0  0  0
201  2  0   0   0   0  0  0
202  0  2   0   0   0  0  0
203  2  0   0   0   0  0  0
204  0  3   0   0   0  0  0
205  2  0   0   0   0  0  0
206  0  4   0   0   0  0  0
207  2  0   0   0   0  0  0
208  0  5   0   0   0  0  0
209  2  0   0   0   0  0  0
210  0  6   0   0   0  0  0
211  2  0   0   0   0  0  0
212  0  7   0   0   0  0  0
213  2  0   0   0   0  0  0
214  0  8   0   0   0  0  0
215  2  0   0   0   0  0  0
216  0  9   0   0   0  0  0
217  2  0   0   0   0  0  0
218  0 10   0   0   0  0  0
219  2  0   0   0   0  0  0
220  0 11   0   0   0  0  0
221  2  0   0   0   0  0  0
222  0 12   0   0   0  0  0
223  2  0   0   0   0  0  0
224  0 13   0   0   0  0  0
225  2  0   0   0   0  0  0
226  0 14   0   0   0  0  0
227  2  0   0   0   0  0  0
228  0 15   0   0   0  0  0
229  2  0   0   0   0  0  0
230  0 16   0   0   0  0  0
231  2  0   0   0   0  0  0
232  0 17   0   0   0  0  0
233  2  0   0   0   0  0  0
234  0 18   0   0   0  0  0
235  2  0   0   0   0  0  0
236  0 19   0   0   0  0  0
237  2  0   0   0   0  0  0
238  0 20   0   0   0  0  0
239  2  0   0   0   0  0  0
240  0 21   0   0   0  0  0
241  2  0   0   0   0  0  0
242  0 22   0   0   0  0  0
243  2  0   0   0   0  0  0
244  0 23   0   0   0  0  0
245  2  0   0   0   0  0  0
246  0 24   0   0   0  0  0
247  2  0   0   0   0  0  0
248  0 25   0   0   0  0  0
249  2  0   0   0   0  0  0
250  0 26   0   0   0  0  0
251  2  0   0   0   0  0  0
252  0 27   0   0   0  0  0
253  2  0   0   0   0  0  0
254  0 28   0   0   0  0  0
255  2  0   0   0   0  0  0
256  0 29   0   0   0  0  0
257  2  0   0   0   0  0  0
258  0 30   0   0   0  0  0
259  2  0   0   0   0  0  0
260  0 31   0   0   0  0  0
261  2  0   0   0   0  0  0
262  0 32   0   0   0  0  0
263  0  0   1   1   1  0  0
264  0  0   0   0   0  1  0
265  1  0   0   0   0  0  0
266  0  1   0   0   0  0  0
267  2  0   0   0   0  0  0
268  0  2   0   0   0  0  0
269  2  0   0   0   0  0  0
270  0  3   0   0   0  0  0
271  2  0   0   0   0  0  0
272  0  4   0   0   0  0  0
273  2  0   0   0   0  0  0
274  0  5   0   0   0  0  0
275  2  0   0   0   0  0  0
276  0  6   0   0   0  0  0
277  2  0   0   0   0  0  0
278  0  7   0   0   0  0  0
279  2  0   0   0   0  0  0
280  0  8   0   0   0  0  0
281  2  0   0   0   0  0  0
282  0  9   0   0   0  0  0
283  2  0   0   0   0  0  0
284  0 10   0   0   0  0  0
285  2  0   0   0   0  0  0
286  0 11   0   0   0  0  0
287  2  0   0   0   0  0  0
288  0 12   0   0   0  0  0
289  2  0   0   0   0  0  0
290  0 13   0   0   0  0  0
291  2  0   0   0   0  0  0
292  0 14   0   0   0  0  0
293  2  0   0   0   0  0  0
294  0 15   0   0   0  0  0
295  2  0   0   0   0  0  0
296  0 16   0   0   0  0  0
297  2  0   0   0   0  0  0
298  0 17   0   0   0  0  0
299  2  0   0   0   0  0  0
300  0 18   0   0   0  0  0
301  2  0   0   0   0  0  0
302  0 19   0   0   0  0  0
303  2  0   0   0   0  0  0
304  0 20   0   0   0  0  0
305  2  0   0   0   0  0  0
306  0 21   0   0   0  0  0
307  2  0   0   0   0  0  0
308  0 22   0   0   0  0  0
309  2  0   0   0   0  0  0
310  0 23   0   0   0  0  0
311  2  0   0   0   0  0  0
312  0 24   0   0   0  0  0
313  2  0   0   0   0  0  0
314  0 25   0   0   0  0  0
315  2  0   0   0   0  0  0
316  0 26   0   0   0  0  0
317  2  0   0   0   0  0  0
318  0 27   0   0   0  0  0
319  2  0   0   0   0  0  0
320  0 28   0   0   0  0  0
321  2  0   0   0   0  0  0
322  0 29   0   0   0  0  0
323  2  0   0   0   0  0  0
324  0 30   0   0   0  0  0
325  2  0   0   0   0  0  0
326  0 31   0   0   0  0  0
327  2  0   0   0   0  0  0
328  0 32   0   0   0  0  0
329  0  0   1   1   1  0  0
330  0  0   0   0   0  1  0
331  1  0   0   0   0  0  0
332  0  1   0   0   0  0  0
333  2  0   0   0   0  0  0
334  0  2   0   0   0  0  0
335  2  0   0   0   0  0  0
336  0  3   0   0   0  0  0
337  2  0   0   0   0  0  0
338  0  4   0   0   0  0  0
[RF]
1      83.4497 1 2 100 357.642 0
2      83.4497 1 2 100 357.642 5.54232
3      83.4497 1 2 100 357.642 4.80146
4      83.4497 1 2 100 357.642 4.0606
5      83.4497 1 2 100 357.642 3.31973
6      83.4497 1 2 100 357.642 2.57887
7      83.4497 1 2 100 357.642 1.83801
8      83.4497 1 2 100 357.642 1.09714
9      83.4497 1 2 100 357.642 0.356282
10      83.4497 1 2 100 357.642 5.8986
11      83.4497 1 2 100 357.642 5.15774
12      83.4497 1 2 100 357.642 4.41688
13      83.4497 1 2 100 357.642 3.67602
14      83.4497 1 2 100 357.642 2.93515
15      83.4497 1 2 100 357.642 2.19429
16      83.4497 1 2 100 357.642 1.45343
17      83.4497 1 2 100 357.642 0.712563
18      83.4497 1 2 100 357.642 6.25489
19      83.4497 1 2 100 357.642 5.51402
20      83.4497 1 2 100 357.642 4.77316
21      83.4497 1 2 100 357.642 4.0323
22      83.4497 1 2 100 357.642 3.29143
23      83.4497 1 2 100 357.642 2.55057
24      83.4497 1 2 100 357.642 1.80971
25      83.4497 1 2 100 357.642 1.06885
26      83.4497 1 2 100 357.642 0.327982
27      83.4497 1 2 100 357.642 5.8703
28      83.4497 1 2 100 357.642 5.12944
29      83.4497 1 2 100 357.642 4.38858
30      83.4497 1 2 100 357.642 3.64772
31      83.4497 1 2 100 357.642 2.90685
32      83.4497 1 2 100 357.642 2.16599

# Format of trapezoid gradients:
# id amplitude rise flat fall delay
# ..      Hz/m   us   us   us    us
[TRAP]
 1  1.36243e+06 1000 4500 1000   0

# Format of ADC events:
# id num dwell delay freq phase
# ..  ..    ns    us   Hz   rad
[ADC]
1 1 1000000 0 0 0

# Format of delays:
# id delay (us)
[DELAYS]
1 2000000
2 25000

# Sequence Shapes
[SHAPES]

shape_id 1
num_samples 50030
2.8e-05
2.8e-05
4
2.81e-05
2.8e-05
2.8e-05
2
2.81e-05
2.8e-05
2.8e-05
0
2.81e-05
2.8e-05
2.8e-05
0
2.81e-05
2.8e-05
2.8e-05
0
2.81e-05
2.8e-05
2.81e-05
2.8e-05
2.81e-05
2.81e-05
0
2.8e-05
2.81e-05
2.8e-05
2.81e-05
2.81e-05
0
2.8e-05
2.81e-05
2.81e-05
2
2.8e-05
2.81e-05
2.81e-05
14
2.82e-05
2.81e-05
2.81e-05
1
2.82e-05
2.81e-05
2.81e-05
0
2.82e-05
2.81e-05
2.81e-05
0
2.82e-05
2.81e-05
2.82e-05
2.81e-05
2.82e-05
2.81e-05
2.82e-05
2.82e-05
0
2.81e-05
2.82e-05
2.81e-05
2.82e-05
2.82e-05
0
2.81e-05
2.82e-05
2.82e-05
2
2.81e-05
2.82e-05
2.82e-05
12
2.83e-05
2.82e-05
2.82e-05
2
2.83e-05
2.82e-05
2.82e-05
0
2.83e-05
2.82e-05
2.82e-05
0
2.83e-05
2.82e-05
2.83e-05
2.82e-05
2.83e-05
2.82e-05
2.83e-05
2.82e-05
2.83e-05
2.83e-05
0
2.82e-05
2.83e-05
2.83e-05
0
2.82e-05
2.83e-05
2.83e-05
1
2.82e-05
2.83e-05
2.83e-05
15
2.84e-05
2.83e-05
2.83e-05
1
2.84e-05
2.83e-05
2.83e-05
0
2.84e-05
2.83e-05
2.83e-05
0
2.84e-05
2.83e-05
2.84e-05
2.83e-05
2.84e-05
2.83e-05
2.84e-05
2.83e-05
2.84e-05
2.84e-05
0
2.83e-05
2.84e-05
2.84e-05
0
2.83e-05
2.84e-05
2.84e-05
2
2.83e-05
2.84e-05
2.84e-05
12
2.85e-05
2.84e-05
2.84e-05
1
2.85e-05
2.84e-05
2.84e-05
0
2.85e-05
2.84e-05
2.84e-05
0
2.85e-05
2.84e-05
2.85e-05
2.84e-05
2.84e-05
0
2.85e-05
2.85e-05
0
2.84e-05
2.85e-05
2.84e-05
2.85e-05
2.85e-05
0
2.84e-05
2.85e-05
2.85e-05
0
2.84e-05
2.85e-05
2.85e-05
2
2.84e-05
2.85e-05
2.85e-05
10
2.86e-05
2.85e-05
2.85e-05
2
2.86e-05
2.85e-05
2.85e-05
0
2.86e-05
2.85e-05
2.85e-05
0
2.86e-05
2.85e-05
2.86e-05
2.85e-05
2.86e-05
2.85e-05
2.86e-05
2.85e-05
2.86e-05
2.85e-05
2.86e-05
2.86e-05
0
2.85e-05
2.86e-05
2.86e-05
0
2.85e-05
2.86e-05
2.86e-05
2
2.85e-05
2.86e-05
2.86e-05
10
2.87e-05
2.86e-05
2.86e-05
2
2.87e-05
2.86e-05
2.86e-05
0
2.87e-05
2.86e-05
2.86e-05
0
2.87e-05
2.86e-05
2.86e-05
0
2.87e-05
2.86e-05
2.87e-05
2.86e-05
2.87e-05
2.87e-05
0
2.86e-05
2.87e-05
2.86e-05
2.87e-05
2.87e-05
1
2.86e-05
2.87e-05
2.87e-05
1
2.86e-05
2.87e-05
2.87e-05
12
2.88e-05
2.87e-05
2.87e-05
1
2.88e-05
2.87e-05
2.87e-05
1
2.88e-05
2.87e-05
2.88e-05
2.87e-05
2.87e-05
0
2.88e-05
2.87e-05
2.88e-05
2.87e-05
2.88e-05
2.88e-05
0
2.87e-05
2.88e-05
2.87e-05
2.88e-05
2.88e-05
0
2.87e-05
2.88e-05
2.88e-05
2
2.87e-05
2.88e-05
2.88e-05
12
2.89e-05
2.88e-05
2.88e-05
2
2.89e-05
2.88e-05
2.88e-05
0
2.89e-05
2.88e-05
2.89e-05
2.88e-05
2.88e-05
0
2.89e-05
2.88e-05
2.89e-05
2.88e-05
2.89e-05
2.89e-05
0
2.88e-05
2.89e-05
2.88e-05
2.89e-05
2.89e-05
1
2.88e-05
2.89e-05
2.89e-05
1
2.88e-05
2.89e-05
2.89e-05
11
2.9e-05
2.89e-05
2.89e-05
2
2.9e-05
2.89e-05
2.89e-05
0
2.9e-05
2.89e-05
2.89e-05
0
2.9e-05
2.89e-05
2.9e-05
2.89e-05
2.9e-05
2.89e-05
2.9e-05
2.89e-05
2.9e-05
2.89e-05
2.9e-05
2.9e-05
0
2.89e-05
2.9e-05
2.9e-05
1
2.89e-05
2.9e-05
2.9e-05
3
2.89e-05
2.9e-05
2.9e-05
5
2.91e-05
2.9e-05
2.9e-05
3
2.91e-05
2.9e-05
2.9e-05
1
2.91e-05
2.9e-05
2.9e-05
0
2.91e-05
2.9e-05
2.91e-05
2.9e-05
2.91e-05
2.9e-05
2.91e-05
2.9e-05
2.91e-05
2.9e-05
2.91e-05
2.91e-05
0
2.9e-05
2.91e-05
2.91e-05
0
2.9e-05
2.91e-05
2.91e-05
2
2.9e-05
2.91e-05
2.91e-05
10
2.92e-05
2.91e-05
2.91e-05
2
2.92e-05
2.91e-05
2.91e-05
0
2.92e-05
2.91e-05
2.91e-05
0
2.92e-05
2.91e-05
2.92e-05
2.91e-05
2.91e-05
0
2.92e-05
2.92e-05
0
2.91e-05
2.92e-05
2.91e-05
2.92e-05
2.92e-05
0
2.91e-05
2.92e-05
2.92e-05
0
2.91e-05
2.92e-05
2.92e-05
2
2.91e-05
2.92e-05
2.92e-05
9
2.93e-05
2.92e-05
2.92e-05
2
2.93e-05
2.92e-05
2.92e-05
1
2.93e-05
2.92e-05
2.93e-05
2.92e-05
2.92e-05
0
2.93e-05
2.92e-05
2.93e-05
2.92e-05
2.93e-05
2.93e-05
0
2.92e-05
2.93e-05
2.92e-05
2.93e-05
2.93e-05
0
2.92e-05
2.93e-05
2.93e-05
2
2.92e-05
2.93e-05
2.93e-05
12
2.94e-05
2.93e-05
2.93e-05
2
2.94e-05
2.93e-05
2.93e-05
0
2.94e-05
2.93e-05
2.93e-05
0
2.94e-05
2.93e-05
2.94e-05
2.93e-05
2.94e-05
2.93e-05
2.94e-05
2.94e-05
0
2.93e-05
2.94e-05
2.93e-05
2.94e-05
2.94e-05
1
2.93e-05
2.94e-05
2.94e-05
2
2.93e-05
2.94e-05
2.94e-05
9
2.95e-05
2.94e-05
2.94e-05
2
2.95e-05
2.94e-05
2.94e-05
0
2.95e-05
2.94e-05
2.94e-05
0
2.95e-05
2.94e-05
2.95e-05
2.94e-05
2.94e-05
0
2.95e-05
2.95e-05
0
2.94e-05
2.95e-05
2.94e-05
2.95e-05
2.95e-05
0
2.94e-05
2.95e-05
2.95e-05
0
2.94e-05
2.95e-05
2.95e-05
2
2.94e-05
2.95e-05
2.95e-05
9
2.96e-05
2.95e-05
2.95e-05
2
2.96e-05
2.95e-05
2.95e-05
0
2.96e-05
2.95e-05
2.95e-05
0
2.96e-05
2.95e-05
2.95e-05
0
2.96e-05
2.95e-05
2.96e-05
2.95e-05
2.96e-05
2.96e-05
0
2.95e-05
2.96e-05
2.95e-05
2.96e-05
2.96e-05
1
2.95e-05
2.96e-05
2.96e-05
1
2.95e-05
2.96e-05
2.96e-05
11
2.97e-05
2.96e-05
2.96e-05
2
2.97e-05
2.96e-05
2.96e-05
0
2.97e-05
2.96e-05
2.96e-05
0
2.97e-05
2.96e-05
2.97e-05
2.96e-05
2.97e-05
2.96e-05
2.97e-05
2.96e-05
2.97e-05
2.97e-05
0
2.96e-05
2.97e-05
2.97e-05
0
2.96e-05
2.97e-05
2.97e-05
1
2.96e-05
2.97e-05
2.97e-05
13
2.98e-05
2.97e-05
2.97e-05
2
2.98e-05
2.97e-05
2.97e-05
0
2.98e-05
2.97e-05
2.98e-05
2.97e-05
2.98e-05
2.97e-05
2.98e-05
2.97e-05
2.98e-05
2.97e-05
2.98e-05
2.97e-05
2.98e-05
2.98e-05
0
2.97e-05
2.98e-05
2.98e-05
1
2.97e-05
2.98e-05
2.98e-05
15
2.99e-05
2.98e-05
2.98e-05
1
2.99e-05
2.98e-05
2.98e-05
0
2.99e-05
2.98e-05
2.98e-05
0
2.99e-05
2.98e-05
2.99e-05
2.98e-05
2.99e-05
2.98e-05
2.99e-05
2.99e-05
0
2.98e-05
2.99e-05
2.99e-05
0
2.98e-05
2.99e-05
2.99e-05
1
2.98e-05
2.99e-05
2.99e-05
4
2.98e-05
2.99e-05
2.99e-05
1
3e-05
2.99e-05
2.99e-05
4
3e-05
2.99e-05
2.99e-05
1
3e-05
2.99e-05
2.99e-05
0
3e-05
2.99e-05
2.99e-05
0
3e-05
2.99e-05
3e-05
2.99e-05
3e-05
2.99e-05
3e-05
3e-05
0
2.99e-05
3e-05
3e-05
0
2.99e-05
3e-05
3e-05
1
2.99e-05
3e-05
3e-05
15
3.01e-05
3e-05
3e-05
1
3.01e-05
3e-05
3e-05
0
3.01e-05
3e-05
3.01e-05
3e-05
3.01e-05
3e-05
3.01e-05
3e-05
3.01e-05
3e-05
3.01e-05
3.01e-05
0
3e-05
3.01e-05
3.01e-05
0
3e-05
3.01e-05
3.01e-05
2
3e-05
3.01e-05
3.01e-05
10
3.02e-05
3.01e-05
3.01e-05
2
3.02e-05
3.01e-05
3.01e-05
0
3.02e-05
3.01e-05
3.01e-05
0
3.02e-05
3.01e-05
3.02e-05
3.01e-05
3.02e-05
3.01e-05
3.02e-05
3.01e-05
3.02e-05
3.02e-05
0
3.01e-05
3.02e-05
3.02e-05
0
3.01e-05
3.02e-05
3.02e-05
1
3.01e-05
3.02e-05
3.02e-05
12
3.03e-05
3.02e-05
3.02e-05
2
3.03e-05
3.02e-05
3.02e-05
0
3.03e-05
3.02e-05
3.02e-05
0
3.03e-05
3.02e-05
3.03e-05
3.02e-05
3.03e-05
3.02e-05
3.03e-05
3.03e-05
0
3.02e-05
3.03e-05
3.02e-05
3.03e-05
3.03e-05
1
3.02e-05
3.03e-05
3.03e-05
2
3.02e-05
3.03e-05
3.03e-05
8
3.04e-05
3.03e-05
3.03e-05
2
3.04e-05
3.03e-05
3.03e-05
0
3.04e-05
3.03e-05
3.03e-05
0
3.04e-05
3.03e-05
3.03e-05
0
3.04e-05
3.03e-05
3.04e-05
3.03e-05
3.04e-05
3.04e-05
0
3.03e-05
3.04e-05
3.03e-05
3.04e-05
3.04e-05
1
3.03e-05
3.04e-05
3.04e-05
2
3.03e-05
3.04e-05
3.04e-05
9
3.05e-05
3.04e-05
3.04e-05
2
3.05e-05
3.04e-05
3.04e-05
0
3.05e-05
3.04e-05
3.04e-05
0
3.05e-05
3.04e-05
3.05e-05
3.04e-05
3.05e-05
3.04e-05
3.05e-05
3.04e-05
3.05e-05
3.05e-05
0
3.04e-05
3.05e-05
3.05e-05
0
3.04e-05
3.05e-05
3.05e-05
1
3.04e-05
3.05e-05
3.05e-05
13
3.06e-05
3.05e-05
3.05e-05
1
3.06e-05
3.05e-05
3.05e-05
1
3.06e-05
3.05e-05
3.06e-05
3.05e-05
3.06e-05
3.05e-05
3.06e-05
3.05e-05
3.06e-05
3.05e-05
3.06e-05
3.06e-05
0
3.05e-05
3.06e-05
3.06e-05
0
3.05e-05
3.06e-05
3.06e-05
2
3.05e-05
3.06e-05
3.06e-05
10
3.07e-05
3.06e-05
3.06e-05
1
3.07e-05
3.06e-05
3.06e-05
1
3.07e-05
3.06e-05
3.07e-05
3.06e-05
3.06e-05
0
3.07e-05
3.06e-05
3.07e-05
3.06e-05
3.07e-05
3.07e-05
0
3.06e-05
3.07e-05
3.07e-05
0
3.06e-05
3.07e-05
3.07e-05
0
3.06e-05
3.07e-05
3.07e-05
3
3.06e-05
3.07e-05
3.07e-05
6
3.08e-05
3.07e-05
3.07e-05
3
3.08e-05
3.07e-05
3.07e-05
0
3.08e-05
3.07e-05
3.07e-05
0
3.08e-05
3.07e-05
3.08e-05
3.07e-05
3.08e-05
3.07e-05
3.08e-05
3.07e-05
3.08e-05
3.07e-05
3.08e-05
3.08e-05
0
3.07e-05
3.08e-05
3.08e-05
1
3.07e-05
3.08e-05
3.08e-05
4
3.07e-05
3.08e-05
3.08e-05
2
3.09e-05
3.08e-05
3.08e-05
4
3.09e-05
3.08e-05
3.08e-05
0
3.09e-05
3.08e-05
3.08e-05
0
3.09e-05
3.08e-05
3.08e-05
0
3.09e-05
3.08e-05
3.09e-05
3.08e-05
3.09e-05
3.08e-05
3.09e-05
3.09e-05
0
3.08e-05
3.09e-05
3.09e-05
0
3.08e-05
3.09e-05
3.09e-05
1
3.08e-05
3.09e-05
3.09e-05
14
3.1e-05
3.09e-05
3.09e-05
1
3.1e-05
3.09e-05
3.09e-05
0
3.1e-05
3.09e-05
3.1e-05
3.09e-05
3.1e-05
3.09e-05
3.1e-05
3.09e-05
3.1e-05
3.09e-05
3.1e-05
3.1e-05
0
3.09e-05
3.1e-05
3.1e-05
0
3.09e-05
3.1e-05
3.1e-05
2
3.09e-05
3.1e-05
3.1e-05
9
3.11e-05
3.1e-05
3.1e-05
2
3.11e-05
3.1e-05
3.1e-05
0
3.11e-05
3.1e-05
3.1e-05
0
3.11e-05
3.1e-05
3.11e-05
3.1e-05
3.11e-05
3.1e-05
3.11e-05
3.1e-05
3.11e-05
3.1e-05
3.11e-05
3.11e-05
0
3.1e-05
3.11e-05
3.11e-05
1
3.1e-05
3.11e-05
3.11e-05
14
3.12e-05
3.11e-05
3.11e-05
1
3.12e-05
3.11e-05
3.11e-05
0
3.12e-05
3.11e-05
3.11e-05
0
3.12e-05
3.11e-05
3.12e-05
3.11e-05
3.12e-05
3.11e-05
3.12e-05
3.12e-05
0
3.11e-05
3.12e-05
3.12e-05
0
3.11e-05
3.12e-05
3.12e-05
0
3.11e-05
3.12e-05
3.12e-05
15
3.13e-05
3.12e-05
3.12e-05
1
3.13e-05
3.12e-05
3.12e-05
0
3.13e-05
3.12e-05
3.12e-05
0
3.13e-05
3.12e-05
3.13e-05
3.12e-05
3.13e-05
3.13e-05
0
3.12e-05
3.13e-05
3.12e-05
3.13e-05
3.13e-05
0
3.12e-05
3.13e-05
3.13e-05
2
3.12e-05
3.13e-05
3.13e-05
11
3.14e-05
3.13e-05
3.13e-05
2
3.14e-05
3.13e-05
3.13e-05
0
3.14e-05
3.13e-05
3.14e-05
3.13e-05
3.13e-05
0
3.14e-05
3.13e-05
3.14e-05
3.14e-05
0
3.13e-05
3.14e-05
3.13e-05
3.14e-05
3.14e-05
0
3.13e-05
3.14e-05
3.14e-05
1
3.13e-05
3.14e-05
3.14e-05
14
3.15e-05
3.14e-05
3.14e-05
1
3.15e-05
3.14e-05
3.14e-05
0
3.15e-05
3.14e-05
3.15e-05
3.14e-05
3.15e-05
3.14e-05
3.15e-05
3.14e-05
3.15e-05
3.14e-05
3.15e-05
3.15e-05
0
3.14e-05
3.15e-05
3.15e-05
0
3.14e-05
3.15e-05
3.15e-05
2
3.14e-05
3.15e-05
3.15e-05
9
3.16e-05
3.15e-05
3.15e-05
2
3.16e-05
3.15e-05
3.15e-05
0
3.16e-05
3.15e-05
3.15e-05
0
3.16e-05
3.15e-05
3.16e-05
3.15e-05
3.16e-05
3.15e-05
3.16e-05
3.15e-05
3.16e-05
3.16e-05
0
3.15e-05
3.16e-05
3.16e-05
0
3.15e-05
3.16e-05
3.16e-05
2
3.15e-05
3.16e-05
3.16e-05
9
3.17e-05
3.16e-05
3.16e-05
2
3.17e-05
3.16e-05
3.16e-05
0
3.17e-05
3.16e-05
3.16e-05
0
3.17e-05
3.16e-05
3.17e-05
3.16e-05
3.17e-05
3.16e-05
3.17e-05
3.16e-05
3.17e-05
3.17e-05
0
3.16e-05
3.17e-05
3.17e-05
0
3.16e-05
3.17e-05
3.17e-05
1
3.16e-05
3.17e-05
3.17e-05
11
3.18e-05
3.17e-05
3.17e-05
2
3.18e-05
3.17e-05
3.17e-05
0
3.18e-05
3.17e-05
3.18e-05
3.17e-05
3.17e-05
0
3.18e-05
3.17e-05
3.18e-05
3.17e-05
3.18e-05
3.18e-05
0
3.17e-05
3.18e-05
3.18e-05
0
3.17e-05
3.18e-05
3.18e-05
1
3.17e-05
3.18e-05
3.18e-05
14
3.19e-05
3.18e-05
3.18e-05
1
3.19e-05
3.18e-05
3.18e-05
0
3.19e-05
3.18e-05
3.19e-05
3.18e-05
3.19e-05
3.18e-05
3.19e-05
3.18e-05
3.19e-05
3.18e-05
3.19e-05
3.19e-05
0
3.18e-05
3.19e-05
3.19e-05
0
3.18e-05
3.19e-05
3.19e-05
2
3.18e-05
3.19e-05
3.19e-05
8
3.2e-05
3.19e-05
3.19e-05
2
3.2e-05
3.19e-05
3.19e-05
0
3.2e-05
3.19e-05
3.19e-05
0
3.2e-05
3.19e-05
3.2e-05
3.19e-05
3.2e-05
3.19e-05
3.2e-05
3.19e-05
3.2e-05
3.19e-05
3.2e-05
3.2e-05
0
3.19e-05
3.2e-05
3.2e-05
2
3.19e-05
3.2e-05
3.2e-05
12
3.21e-05
3.2e-05
3.2e-05
1
3.21e-05
3.2e-05
3.2e-05
0
3.21e-05
3.2e-05
3.2e-05
0
3.21e-05
3.2e-05
3.21e-05
3.2e-05
3.21e-05
3.2e-05
3.21e-05
3.2e-05
3.21e-05
3.21e-05
0
3.2e-05
3.21e-05
3.21e-05
1
3.2e-05
3.21e-05
3.21e-05
4
3.2e-05
3.21e-05
3.21e-05
2
3.22e-05
3.21e-05
3.21e-05
4
3.22e-05
3.21e-05
3.21e-05
0
3.22e-05
3.21e-05
3.21e-05
0
3.22e-05
3.21e-05
3.22e-05
3.21e-05
3.21e-05
0
3.22e-05
3.21e-05
3.22e-05
3.22e-05
0
3.21e-05
3.22e-05
3.22e-05
0
3.21e-05
3.22e-05
3.22e-05
0
3.21e-05
3.22e-05
3.22e-05
3
3.21e-05
3.22e-05
3.22e-05
5
3.23e-05
3.22e-05
3.22e-05
3
3.23e-05
3.22e-05
3.22e-05
0
3.23e-05
3.22e-05
3.22e-05
0
3.23e-05
3.22e-05
3.22e-05
0
3.23e-05
3.22e-05
3.23e-05
3.22e-05
3.23e-05
3.23e-05
0
3.22e-05
3.23e-05
3.23e-05
0
3.22e-05
3.23e-05
3.23e-05
0
3.22e-05
3.23e-05
3.23e-05
4
3.22e-05
3.23e-05
3.23e-05
3
3.24e-05
3.23e-05
3.23e-05
3
3.24e-05
3.23e-05
3.23e-05
1
3.24e-05
3.23e-05
3.23e-05
0
3.24e-05
3.23e-05
3.24e-05
3.23e-05
3.24e-05
3.23e-05
3.24e-05
3.23e-05
3.24e-05
3.24e-05
0
3.23e-05
3.24e-05
3.24e-05
0
3.23e-05
3.24e-05
3.24e-05
1
3.23e-05
3.24e-05
3.24e-05
12
3.25e-05
3.24e-05
3.24e-05
1
3.25e-05
3.24e-05
3.24e-05
0
3.25e-05
3.24e-05
3.24e-05
0
3.25e-05
3.24e-05
3.25e-05
3.24e-05
3.25e-05
3.24e-05
3.25e-05
3.25e-05
0
3.24e-05
3.25e-05
3.25e-05
0
3.24e-05
3.25e-05
3.25e-05
1
3.24e-05
3.25e-05
3.25e-05
13
3.26e-05
3.25e-05
3.25e-05
1
3.26e-05
3.25e-05
3.25e-05
0
3.26e-05
3.25e-05
3.26e-05
3.25e-05
3.25e-05
0
3.26e-05
3.25e-05
3.26e-05
3.26e-05
0
3.25e-05
3.26e-05
3.25e-05
3.26e-05
3.26e-05
1
3.25e-05
3.26e-05
3.26e-05
2
3.25e-05
3.26e-05
3.26e-05
8
3.27e-05
3.26e-05
3.26e-05
2
3.27e-05
3.26e-05
3.26e-05
0
3.27e-05
3.26e-05
3.26e-05
0
3.27e-05
3.26e-05
3.27e-05
3.26e-05
3.27e-05
3.26e-05
3.27e-05
3.26e-05
3.27e-05
3.27e-05
0
3.26e-05
3.27e-05
3.27e-05
0
3.26e-05
3.27e-05
3.27e-05
2
3.26e-05
3.27e-05
3.27e-05
9
3.28e-05
3.27e-05
3.27e-05
2
3.28e-05
3.27e-05
3.27e-05
0
3.28e-05
3.27e-05
3.28e-05
3.27e-05
3.27e-05
0
3.28e-05
3.27e-05
3.28e-05
3.27e-05
3.28e-05
3.28e-05
0
3.27e-05
3.28e-05
3.28e-05
0
3.27e-05
3.28e-05
3.28e-05
1
3.27e-05
3.28e-05
3.28e-05
13
3.29e-05
3.28e-05
3.28e-05
1
3.29e-05
3.28e-05
3.28e-05
0
3.29e-05
3.28e-05
3.28e-05
0
3.29e-05
3.28e-05
3.29e-05
3.28e-05
3.29e-05
3.28e-05
3.29e-05
3.29e-05
0
3.28e-05
3.29e-05
3.29e-05
0
3.28e-05
3.29e-05
3.29e-05
2
3.28e-05
3.29e-05
3.29e-05
10
3.3e-05
3.29e-05
3.29e-05
1
3.3e-05
3.29e-05
3.29e-05
0
3.3e-05
3.29e-05
3.29e-05
0
3.3e-05
3.29e-05
3.3e-05
3.29e-05
3.3e-05
3.29e-05
3.3e-05
3.29e-05
3.3e-05
3.3e-05
0
3.29e-05
3.3e-05
3.3e-05
0
3.29e-05
3.3e-05
3.3e-05
2
3.29e-05
3.3e-05
3.3e-05
8
3.31e-05
3.3e-05
3.3e-05
2
3.31e-05
3.3e-05
3.3e-05
0
3.31e-05
3.3e-05
3.3e-05
0
3.31e-05
3.3e-05
3.31e-05
3.3e-05
3.31e-05
3.3e-05
3.31e-05
3.3e-05
3.31e-05
3.31e-05
0
3.3e-05
3.31e-05
3.31e-05
0
3.3e-05
3.31e-05
3.31e-05
3
3.3e-05
3.31e-05
3.31e-05
6
3.32e-05
3.31e-05
3.31e-05
3
3.32e-05
3.31e-05
3.31e-05
0
3.32e-05
3.31e-05
3.31e-05
0
3.32e-05
3.31e-05
3.32e-05
3.31e-05
3.32e-05
3.31e-05
3.32e-05
3.31e-05
3.32e-05
3.32e-05
0
3.31e-05
3.32e-05
3.32e-05
0
3.31e-05
3.32e-05
3.32e-05
3
3.31e-05
3.32e-05
3.32e-05
6
3.33e-05
3.32e-05
3.32e-05
3
3.33e-05
3.32e-05
3.32e-05
0
3.33e-05
3.32e-05
3.32e-05
0
3.33e-05
3.32e-05
3.33e-05
3.32e-05
3.33e-05
3.32e-05
3.33e-05
3.32e-05
3.33e-05
3.33e-05
0
3.32e-05
3.33e-05
3.33e-05
1
3.32e-05
3.33e-05
3.33e-05
2
3.32e-05
3.33e-05
3.33e-05
6
3.34e-05
3.33e-05
3.33e-05
2
3.34e-05
3.33e-05
3.33e-05
1
3.34e-05
3.33e-05
3.34e-05
3.33e-05
3.33e-05
0
3.34e-05
3.33e-05
3.34e-05
3.33e-05
3.34e-05
3.34e-05
0
3.33e-05
3.34e-05
3.33e-05
3.34e-05
3.34e-05
1
3.33e-05
3.34e-05
3.34e-05
4
3.33e-05
3.34e-05
3.34e-05
1
3.35e-05
3.34e-05
3.34e-05
4
3.35e-05
3.34e-05
3.34e-05
1
3.35e-05
3.34e-05
3.34e-05
0
3.35e-05
3.34e-05
3.35e-05
3.34e-05
3.35e-05
3.34e-05
3.35e-05
3.34e-05
3.35e-05
3.34e-05
3.35e-05
3.35e-05
0
3.34e-05
3.35e-05
3.35e-05
2
3.34e-05
3.35e-05
3.35e-05
11
3.36e-05
3.35e-05
3.35e-05
2
3.36e-05
3.35e-05
3.35e-05
0
3.36e-05
3.35e-05
3.36e-05
3.35e-05
3.36e-05
3.35e-05
3.36e-05
3.35e-05
3.36e-05
3.35e-05
3.36e-05
3.36e-05
0
3.35e-05
3.36e-05
3.36e-05
1
3.35e-05
3.36e-05
3.36e-05
3
3.35e-05
3.36e-05
3.36e-05
2
3.37e-05
3.36e-05
3.36e-05
4
3.37e-05
3.36e-05
3.36e-05
1
3.37e-05
3.36e-05
3.37e-05
3.36e-05
3.36e-05
0
3.37e-05
3.36e-05
3.37e-05
3.36e-05
3.37e-05
3.37e-05
0
3.36e-05
3.37e-05
3.36e-05
3.37e-05
3.37e-05
1
3.36e-05
3.37e-05
3.37e-05
3
3.36e-05
3.37e-05
3.37e-05
3
3.38e-05
3.37e-05
3.37e-05
4
3.38e-05
3.37e-05
3.37e-05
0
3.38e-05
3.37e-05
3.37e-05
0
3.38e-05
3.37e-05
3.38e-05
3.37e-05
3.38e-05
3.37e-05
3.38e-05
3.37e-05
3.38e-05
3.37e-05
3.38e-05
3.38e-05
0
3.37e-05
3.38e-05
3.38e-05
1
3.37e-05
3.38e-05
3.38e-05
13
3.39e-05
3.38e-05
3.38e-05
1
3.39e-05
3.38e-05
3.38e-05
0
3.39e-05
3.38e-05
3.39e-05
3.38e-05
3.39e-05
3.38e-05
3.39e-05
3.38e-05
3.39e-05
3.38e-05
3.39e-05
3.39e-05
0
3.38e-05
3.39e-05
3.39e-05
1
3.38e-05
3.39e-05
3.39e-05
14
3.4e-05
3.39e-05
3.39e-05
1
3.4e-05
3.39e-05
3.39e-05
0
3.4e-05
3.39e-05
3.4e-05
3.39e-05
3.4e-05
3.39e-05
3.4e-05
3.39e-05
3.4e-05
3.4e-05
0
3.39e-05
3.4e-05
3.4e-05
0
3.39e-05
3.4e-05
3.4e-05
1
3.39e-05
3.4e-05
3.4e-05
11
3.41e-05
3.4e-05
3.4e-05
1
3.41e-05
3.4e-05
3.4e-05
0
3.41e-05
3.4e-05
3.4e-05
0
3.41e-05
3.4e-05
3.41e-05
3.4e-05
3.41e-05
3.4e-05
3.41e-05
3.41e-05
0
3.4e-05
3.41e-05
3.41e-05
0
3.4e-05
3.41e-05
3.41e-05
1
3.4e-05
3.41e-05
3.41e-05
11
3.42e-05
3.41e-05
3.41e-05
1
3.42e-05
3.41e-05
3.41e-05
0
3.42e-05
3.41e-05
3.41e-05
0
3.42e-05
3.41e-05
3.42e-05
3.41e-05
3.42e-05
3.41e-05
3.42e-05
3.41e-05
3.42e-05
3.42e-05
0
3.41e-05
3.42e-05
3.42e-05
1
3.41e-05
3.42e-05
3.42e-05
14
3.43e-05
3.42e-05
3.42e-05
1
3.43e-05
3.42e-05
3.42e-05
0
3.43e-05
3.42e-05
3.43e-05
3.42e-05
3.43e-05
3.42e-05
3.43e-05
3.42e-05
3.43e-05
3.43e-05
0
3.42e-05
3.43e-05
3.43e-05
0
3.42e-05
3.43e-05
3.43e-05
1
3.42e-05
3.43e-05
3.43e-05
10
3.44e-05
3.43e-05
3.43e-05
2
3.44e-05
3.43e-05
3.43e-05
0
3.44e-05
3.43e-05
3.44e-05
3.43e-05
3.43e-05
0
3.44e-05
3.43e-05
3.44e-05
3.44e-05
0
3.43e-05
3.44e-05
3.43e-05
3.44e-05
3.44e-05
1
3.43e-05
3.44e-05
3.44e-05
2
3.43e-05
3.44e-05
3.44e-05
7
3.45e-05
3.44e-05
3.44e-05
2
3.45e-05
3.44e-05
3.44e-05
0
3.45e-05
3.44e-05
3.44e-05
0
3.45e-05
3.44e-05
3.45e-05
3.44e-05
3.45e-05
3.44e-05
3.45e-05
3.44e-05
3.45e-05
3.45e-05
0
3.44e-05
3.45e-05
3.45e-05
0
3.44e-05
3.45e-05
3.45e-05
3
3.44e-05
3.45e-05
3.45e-05
5
3.46e-05
3.45e-05
3.45e-05
3
3.46e-05
3.45e-05
3.45e-05
0
3.46e-05
3.45e-05
3.45e-05
0
3.46e-05
3.45e-05
3.46e-05
3.45e-05
3.46e-05
3.45e-05
3.46e-05
3.45e-05
3.46e-05
3.46e-05
0
3.45e-05
3.46e-05
3.46e-05
0
3.45e-05
3.46e-05
3.46e-05
3
3.45e-05
3.46e-05
3.46e-05
5
3.47e-05
3.46e-05
3.46e-05
3
3.47e-05
3.46e-05
3.46e-05
0
3.47e-05
3.46e-05
3.46e-05
0
3.47e-05
3.46e-05
3.47e-05
3.46e-05
3.47e-05
3.46e-05
3.47e-05
3.46e-05
3.47e-05
3.47e-05
0
3.46e-05
3.47e-05
3.47e-05
0
3.46e-05
3.47e-05
3.47e-05
3
3.46e-05
3.47e-05
3.47e-05
4
3.48e-05
3.47e-05
3.47e-05
3
3.48e-05
3.47e-05
3.47e-05
1
3.48e-05
3.47e-05
3.47e-05
0
3.48e-05
3.47e-05
3.48e-05
3.47e-05
3.48e-05
3.47e-05
3.48e-05
3.47e-05
3.48e-05
3.48e-05
0
3.47e-05
3.48e-05
3.48e-05
1
3.47e-05
3.48e-05
3.48e-05
4
3.47e-05
3.48e-05
3.48e-05
1
3.49e-05
3.48e-05
3.48e-05
4
3.49e-05
3.48e-05
3.48e-05
0
3.49e-05
3.48e-05
3.48e-05
0
3.49e-05
3.48e-05
3.48e-05
0
3.49e-05
3.48e-05
3.49e-05
3.48e-05
3.49e-05
3.49e-05
0
3.48e-05
3.49e-05
3.49e-05
0
3.48e-05
3.49e-05
3.49e-05
1
3.48e-05
3.49e-05
3.49e-05
13
3.5e-05
3.49e-05
3.49e-05
1
3.5e-05
3.49e-05
3.5e-05
3.49e-05
3.49e-05
0
3.5e-05
3.49e-05
3.5e-05
3.49e-05
3.5e-05
3.49e-05
3.5e-05
3.5e-05
0
3.49e-05
3.5e-05
3.5e-05
0
3.49e-05
3.5e-05
3.5e-05
2
3.49e-05
3.5e-05
3.5e-05
8
3.51e-05
3.5e-05
3.5e-05
2
3.51e-05
3.5e-05
3.5e-05
0
3.51e-05
3.5e-05
3.5e-05
0
3.51e-05
3.5e-05
3.51e-05
3.5e-05
3.51e-05
