# Pulseq sequence file
# Created by MATLAB mr toolbox

# Created for Pulseq-CEST
# https://pulseq-cest.github.io/
# Created by: Kai Herz
# Created at: 05-Mar-2023 08:37:15

[VERSION]
major 1
minor 3
revision 1

[DEFINITIONS]
B0 7 
B1rms 3.01656831 
DCsat 0.998 
FREQ 298.0348 
M0_offset -100 
Trec 15 
Tsat 0.7998 
n_pulses 8 
num_meas 30 
offsets_ppm -100 -20 -4.2 -4 -3.8 -3.6 -3.4 -3.2 -3 -2.8 -2.6 -2.4 -2.2 -2 -1.8 1.8 2 2.2 2.4 2.6 2.8 3 3.2 3.4 3.6 3.8 4 4.2 20 100 
seq_id_string Glu_7T_001_3uT_8Hannning_DC99_800ms 
spoiling 1 
td 0.0002 
tp 0.0998 

# Format of blocks:
#  #  D RF  GX  GY  GZ ADC EXT
[BLOCKS]
  1  1  0   0   0   0  0  0
  2  0  1   0   0   0  0  0
  3  2  0   0   0   0  0  0
  4  0  2   0   0   0  0  0
  5  2  0   0   0   0  0  0
  6  0  3   0   0   0  0  0
  7  2  0   0   0   0  0  0
  8  0  4   0   0   0  0  0
  9  2  0   0   0   0  0  0
 10  0  5   0   0   0  0  0
 11  2  0   0   0   0  0  0
 12  0  6   0   0   0  0  0
 13  2  0   0   0   0  0  0
 14  0  7   0   0   0  0  0
 15  2  0   0   0   0  0  0
 16  0  8   0   0   0  0  0
 17  0  0   1   1   1  0  0
 18  0  0   0   0   0  1  0
 19  1  0   0   0   0  0  0
 20  0  9   0   0   0  0  0
 21  2  0   0   0   0  0  0
 22  0 10   0   0   0  0  0
 23  2  0   0   0   0  0  0
 24  0 11   0   0   0  0  0
 25  2  0   0   0   0  0  0
 26  0 12   0   0   0  0  0
 27  2  0   0   0   0  0  0
 28  0 13   0   0   0  0  0
 29  2  0   0   0   0  0  0
 30  0 14   0   0   0  0  0
 31  2  0   0   0   0  0  0
 32  0 15   0   0   0  0  0
 33  2  0   0   0   0  0  0
 34  0 16   0   0   0  0  0
 35  0  0   1   1   1  0  0
 36  0  0   0   0   0  1  0
 37  1  0   0   0   0  0  0
 38  0 17   0   0   0  0  0
 39  2  0   0   0   0  0  0
 40  0 18   0   0   0  0  0
 41  2  0   0   0   0  0  0
 42  0 19   0   0   0  0  0
 43  2  0   0   0   0  0  0
 44  0 20   0   0   0  0  0
 45  2  0   0   0   0  0  0
 46  0 21   0   0   0  0  0
 47  2  0   0   0   0  0  0
 48  0 22   0   0   0  0  0
 49  2  0   0   0   0  0  0
 50  0 23   0   0   0  0  0
 51  2  0   0   0   0  0  0
 52  0 24   0   0   0  0  0
 53  0  0   1   1   1  0  0
 54  0  0   0   0   0  1  0
 55  1  0   0   0   0  0  0
 56  0 25   0   0   0  0  0
 57  2  0   0   0   0  0  0
 58  0 26   0   0   0  0  0
 59  2  0   0   0   0  0  0
 60  0 27   0   0   0  0  0
 61  2  0   0   0   0  0  0
 62  0 28   0   0   0  0  0
 63  2  0   0   0   0  0  0
 64  0 29   0   0   0  0  0
 65  2  0   0   0   0  0  0
 66  0 30   0   0   0  0  0
 67  2  0   0   0   0  0  0
 68  0 31   0   0   0  0  0
 69  2  0   0   0   0  0  0
 70  0 32   0   0   0  0  0
 71  0  0   1   1   1  0  0
 72  0  0   0   0   0  1  0
 73  1  0   0   0   0  0  0
 74  0 33   0   0   0  0  0
 75  2  0   0   0   0  0  0
 76  0 34   0   0   0  0  0
 77  2  0   0   0   0  0  0
 78  0 35   0   0   0  0  0
 79  2  0   0   0   0  0  0
 80  0 36   0   0   0  0  0
 81  2  0   0   0   0  0  0
 82  0 37   0   0   0  0  0
 83  2  0   0   0   0  0  0
 84  0 38   0   0   0  0  0
 85  2  0   0   0   0  0  0
 86  0 39   0   0   0  0  0
 87  2  0   0   0   0  0  0
 88  0 40   0   0   0  0  0
 89  0  0   1   1   1  0  0
 90  0  0   0   0   0  1  0
 91  1  0   0   0   0  0  0
 92  0 41   0   0   0  0  0
 93  2  0   0   0   0  0  0
 94  0 42   0   0   0  0  0
 95  2  0   0   0   0  0  0
 96  0 43   0   0   0  0  0
 97  2  0   0   0   0  0  0
 98  0 44   0   0   0  0  0
 99  2  0   0   0   0  0  0
100  0 45   0   0   0  0  0
101  2  0   0   0   0  0  0
102  0 46   0   0   0  0  0
103  2  0   0   0   0  0  0
104  0 47   0   0   0  0  0
105  2  0   0   0   0  0  0
106  0 48   0   0   0  0  0
107  0  0   1   1   1  0  0
108  0  0   0   0   0  1  0
109  1  0   0   0   0  0  0
110  0 49   0   0   0  0  0
111  2  0   0   0   0  0  0
112  0 50   0   0   0  0  0
113  2  0   0   0   0  0  0
114  0 51   0   0   0  0  0
115  2  0   0   0   0  0  0
116  0 52   0   0   0  0  0
117  2  0   0   0   0  0  0
118  0 53   0   0   0  0  0
119  2  0   0   0   0  0  0
120  0 54   0   0   0  0  0
121  2  0   0   0   0  0  0
122  0 55   0   0   0  0  0
123  2  0   0   0   0  0  0
124  0 56   0   0   0  0  0
125  0  0   1   1   1  0  0
126  0  0   0   0   0  1  0
127  1  0   0   0   0  0  0
128  0 57   0   0   0  0  0
129  2  0   0   0   0  0  0
130  0 58   0   0   0  0  0
131  2  0   0   0   0  0  0
132  0 59   0   0   0  0  0
133  2  0   0   0   0  0  0
134  0 60   0   0   0  0  0
135  2  0   0   0   0  0  0
136  0 61   0   0   0  0  0
137  2  0   0   0   0  0  0
138  0 62   0   0   0  0  0
139  2  0   0   0   0  0  0
140  0 63   0   0   0  0  0
141  2  0   0   0   0  0  0
142  0 64   0   0   0  0  0
143  0  0   1   1   1  0  0
144  0  0   0   0   0  1  0
145  1  0   0   0   0  0  0
146  0 65   0   0   0  0  0
147  2  0   0   0   0  0  0
148  0 66   0   0   0  0  0
149  2  0   0   0   0  0  0
150  0 67   0   0   0  0  0
151  2  0   0   0   0  0  0
152  0 68   0   0   0  0  0
153  2  0   0   0   0  0  0
154  0 69   0   0   0  0  0
155  2  0   0   0   0  0  0
156  0 70   0   0   0  0  0
157  2  0   0   0   0  0  0
158  0 71   0   0   0  0  0
159  2  0   0   0   0  0  0
160  0 72   0   0   0  0  0
161  0  0   1   1   1  0  0
162  0  0   0   0   0  1  0
163  1  0   0   0   0  0  0
164  0 73   0   0   0  0  0
165  2  0   0   0   0  0  0
166  0 74   0   0   0  0  0
167  2  0   0   0   0  0  0
168  0 75   0   0   0  0  0
169  2  0   0   0   0  0  0
170  0 76   0   0   0  0  0
171  2  0   0   0   0  0  0
172  0 77   0   0   0  0  0
173  2  0   0   0   0  0  0
174  0 78   0   0   0  0  0
175  2  0   0   0   0  0  0
176  0 79   0   0   0  0  0
177  2  0   0   0   0  0  0
178  0 80   0   0   0  0  0
179  0  0   1   1   1  0  0
180  0  0   0   0   0  1  0
181  1  0   0   0   0  0  0
182  0 81   0   0   0  0  0
183  2  0   0   0   0  0  0
184  0 82   0   0   0  0  0
185  2  0   0   0   0  0  0
186  0 83   0   0   0  0  0
187  2  0   0   0   0  0  0
188  0 84   0   0   0  0  0
189  2  0   0   0   0  0  0
190  0 85   0   0   0  0  0
191  2  0   0   0   0  0  0
192  0 86   0   0   0  0  0
193  2  0   0   0   0  0  0
194  0 87   0   0   0  0  0
195  2  0   0   0   0  0  0
196  0 88   0   0   0  0  0
197  0  0   1   1   1  0  0
198  0  0   0   0   0  1  0
199  1  0   0   0   0  0  0
200  0 89   0   0   0  0  0
201  2  0   0   0   0  0  0
202  0 90   0   0   0  0  0
203  2  0   0   0   0  0  0
204  0 91   0   0   0  0  0
205  2  0   0   0   0  0  0
206  0 92   0   0   0  0  0
207  2  0   0   0   0  0  0
208  0 93   0   0   0  0  0
209  2  0   0   0   0  0  0
210  0 94   0   0   0  0  0
211  2  0   0   0   0  0  0
212  0 95   0   0   0  0  0
213  2  0   0   0   0  0  0
214  0 96   0   0   0  0  0
215  0  0   1   1   1  0  0
216  0  0   0   0   0  1  0
217  1  0   0   0   0  0  0
218  0 97   0   0   0  0  0
219  2  0   0   0   0  0  0
220  0 98   0   0   0  0  0
221  2  0   0   0   0  0  0
222  0 99   0   0   0  0  0
223  2  0   0   0   0  0  0
224  0 100   0   0   0  0  0
225  2  0   0   0   0  0  0
226  0 101   0   0   0  0  0
227  2  0   0   0   0  0  0
228  0 102   0   0   0  0  0
229  2  0   0   0   0  0  0
230  0 103   0   0   0  0  0
231  2  0   0   0   0  0  0
232  0 104   0   0   0  0  0
233  0  0   1   1   1  0  0
234  0  0   0   0   0  1  0
235  1  0   0   0   0  0  0
236  0 105   0   0   0  0  0
237  2  0   0   0   0  0  0
238  0 106   0   0   0  0  0
239  2  0   0   0   0  0  0
240  0 107   0   0   0  0  0
241  2  0   0   0   0  0  0
242  0 108   0   0   0  0  0
243  2  0   0   0   0  0  0
244  0 109   0   0   0  0  0
245  2  0   0   0   0  0  0
246  0 110   0   0   0  0  0
247  2  0   0   0   0  0  0
248  0 111   0   0   0  0  0
249  2  0   0   0   0  0  0
250  0 112   0   0   0  0  0
251  0  0   1   1   1  0  0
252  0  0   0   0   0  1  0
253  1  0   0   0   0  0  0
254  0 113   0   0   0  0  0
255  2  0   0   0   0  0  0
256  0 114   0   0   0  0  0
257  2  0   0   0   0  0  0
258  0 115   0   0   0  0  0
259  2  0   0   0   0  0  0
260  0 116   0   0   0  0  0
261  2  0   0   0   0  0  0
262  0 117   0   0   0  0  0
263  2  0   0   0   0  0  0
264  0 118   0   0   0  0  0
265  2  0   0   0   0  0  0
266  0 119   0   0   0  0  0
267  2  0   0   0   0  0  0
268  0 120   0   0   0  0  0
269  0  0   1   1   1  0  0
270  0  0   0   0   0  1  0
271  1  0   0   0   0  0  0
272  0 121   0   0   0  0  0
273  2  0   0   0   0  0  0
274  0 122   0   0   0  0  0
275  2  0   0   0   0  0  0
276  0 123   0   0   0  0  0
277  2  0   0   0   0  0  0
278  0 124   0   0   0  0  0
279  2  0   0   0   0  0  0
280  0 125   0   0   0  0  0
281  2  0   0   0   0  0  0
282  0 126   0   0   0  0  0
283  2  0   0   0   0  0  0
284  0 127   0   0   0  0  0
285  2  0   0   0   0  0  0
286  0 128   0   0   0  0  0
287  0  0   1   1   1  0  0
288  0  0   0   0   0  1  0
289  1  0   0   0   0  0  0
290  0 129   0   0   0  0  0
291  2  0   0   0   0  0  0
292  0 130   0   0   0  0  0
293  2  0   0   0   0  0  0
294  0 131   0   0   0  0  0
295  2  0   0   0   0  0  0
296  0 132   0   0   0  0  0
297  2  0   0   0   0  0  0
298  0 133   0   0   0  0  0
299  2  0   0   0   0  0  0
300  0 134   0   0   0  0  0
301  2  0   0   0   0  0  0
302  0 135   0   0   0  0  0
303  2  0   0   0   0  0  0
304  0 136   0   0   0  0  0
305  0  0   1   1   1  0  0
306  0  0   0   0   0  1  0
307  1  0   0   0   0  0  0
308  0 137   0   0   0  0  0
309  2  0   0   0   0  0  0
310  0 138   0   0   0  0  0
311  2  0   0   0   0  0  0
312  0 139   0   0   0  0  0
313  2  0   0   0   0  0  0
314  0 140   0   0   0  0  0
315  2  0   0   0   0  0  0
316  0 141   0   0   0  0  0
317  2  0   0   0   0  0  0
318  0 142   0   0   0  0  0
319  2  0   0   0   0  0  0
320  0 143   0   0   0  0  0
321  2  0   0   0   0  0  0
322  0 144   0   0   0  0  0
323  0  0   1   1   1  0  0
324  0  0   0   0   0  1  0
325  1  0   0   0   0  0  0
326  0 145   0   0   0  0  0
327  2  0   0   0   0  0  0
328  0 146   0   0   0  0  0
329  2  0   0   0   0  0  0
330  0 147   0   0   0  0  0
331  2  0   0   0   0  0  0
332  0 148   0   0   0  0  0
333  2  0   0   0   0  0  0
[RF]
1       209.91 1 2 100 -29803.5 0
2       209.91 1 2 100 -29803.5 4.51504
3       209.91 1 2 100 -29803.5 2.7469
4       209.91 1 2 100 -29803.5 0.978762
5       209.91 1 2 100 -29803.5 5.49381
6       209.91 1 2 100 -29803.5 3.72566
7       209.91 1 2 100 -29803.5 1.95752
8       209.91 1 2 100 -29803.5 0.189383
9       209.91 1 2 100 -5960.7 0
10       209.91 1 2 100 -5960.7 5.92956
11       209.91 1 2 100 -5960.7 5.57593
12       209.91 1 2 100 -5960.7 5.2223
13       209.91 1 2 100 -5960.7 4.86867
14       209.91 1 2 100 -5960.7 4.51504
15       209.91 1 2 100 -5960.7 4.16142
16       209.91 1 2 100 -5960.7 3.80779
17       209.91 1 2 100 -1251.75 0
18       209.91 1 2 100 -1251.75 0.239897
19       209.91 1 2 100 -1251.75 0.479795
20       209.91 1 2 100 -1251.75 0.719692
21       209.91 1 2 100 -1251.75 0.959589
22       209.91 1 2 100 -1251.75 1.19949
23       209.91 1 2 100 -1251.75 1.43938
24       209.91 1 2 100 -1251.75 1.67928
25       209.91 1 2 100 -1192.14 0
26       209.91 1 2 100 -1192.14 6.21246
27       209.91 1 2 100 -1192.14 6.14173
28       209.91 1 2 100 -1192.14 6.07101
29       209.91 1 2 100 -1192.14 6.00028
30       209.91 1 2 100 -1192.14 5.92956
31       209.91 1 2 100 -1192.14 5.85883
32       209.91 1 2 100 -1192.14 5.78811
33       209.91 1 2 100 -1132.53 0
34       209.91 1 2 100 -1132.53 5.90184
35       209.91 1 2 100 -1132.53 5.52049
36       209.91 1 2 100 -1132.53 5.13914
37       209.91 1 2 100 -1132.53 4.75779
38       209.91 1 2 100 -1132.53 4.37644
39       209.91 1 2 100 -1132.53 3.99509
40       209.91 1 2 100 -1132.53 3.61374
41       209.91 1 2 100 -1072.93 0
42       209.91 1 2 100 -1072.93 5.59121
43       209.91 1 2 100 -1072.93 4.89924
44       209.91 1 2 100 -1072.93 4.20727
45       209.91 1 2 100 -1072.93 3.5153
46       209.91 1 2 100 -1072.93 2.82333
47       209.91 1 2 100 -1072.93 2.13136
48       209.91 1 2 100 -1072.93 1.43938
49       209.91 1 2 100 -1013.32 0
50       209.91 1 2 100 -1013.32 5.28059
51       209.91 1 2 100 -1013.32 4.278
52       209.91 1 2 100 -1013.32 3.2754
53       209.91 1 2 100 -1013.32 2.27281
54       209.91 1 2 100 -1013.32 1.27021
55       209.91 1 2 100 -1013.32 0.267618
56       209.91 1 2 100 -1013.32 5.54821
57       209.91 1 2 100 -953.711 0
58       209.91 1 2 100 -953.711 4.96997
59       209.91 1 2 100 -953.711 3.65675
60       209.91 1 2 100 -953.711 2.34353
61       209.91 1 2 100 -953.711 1.03031
62       209.91 1 2 100 -953.711 6.00028
63       209.91 1 2 100 -953.711 4.68707
64       209.91 1 2 100 -953.711 3.37385
65       209.91 1 2 100 -894.104 0
66       209.91 1 2 100 -894.104 4.65934
67       209.91 1 2 100 -894.104 3.0355
68       209.91 1 2 100 -894.104 1.41166
69       209.91 1 2 100 -894.104 6.07101
70       209.91 1 2 100 -894.104 4.44717
71       209.91 1 2 100 -894.104 2.82333
72       209.91 1 2 100 -894.104 1.19949
73       209.91 1 2 100 -834.497 0
74       209.91 1 2 100 -834.497 4.34872
75       209.91 1 2 100 -834.497 2.41426
76       209.91 1 2 100 -834.497 0.479795
77       209.91 1 2 100 -834.497 4.82852
78       209.91 1 2 100 -834.497 2.89405
79       209.91 1 2 100 -834.497 0.959589
80       209.91 1 2 100 -834.497 5.30831
81       209.91 1 2 100 -774.89 0
82       209.91 1 2 100 -774.89 4.0381
83       209.91 1 2 100 -774.89 1.79301
84       209.91 1 2 100 -774.89 5.83111
85       209.91 1 2 100 -774.89 3.58602
86       209.91 1 2 100 -774.89 1.34094
87       209.91 1 2 100 -774.89 5.37904
88       209.91 1 2 100 -774.89 3.13395
89       209.91 1 2 100 -715.284 0
90       209.91 1 2 100 -715.284 3.72748
91       209.91 1 2 100 -715.284 1.17177
92       209.91 1 2 100 -715.284 4.89924
93       209.91 1 2 100 -715.284 2.34353
94       209.91 1 2 100 -715.284 6.07101
95       209.91 1 2 100 -715.284 3.5153
96       209.91 1 2 100 -715.284 0.959589
97       209.91 1 2 100 -655.677 0
98       209.91 1 2 100 -655.677 3.41685
99       209.91 1 2 100 -655.677 0.55052
100       209.91 1 2 100 -655.677 3.96737
101       209.91 1 2 100 -655.677 1.10104
102       209.91 1 2 100 -655.677 4.51789
103       209.91 1 2 100 -655.677 1.65156
104       209.91 1 2 100 -655.677 5.06841
105       209.91 1 2 100 -596.07 0
106       209.91 1 2 100 -596.07 3.10623
107       209.91 1 2 100 -596.07 6.21246
108       209.91 1 2 100 -596.07 3.0355
109       209.91 1 2 100 -596.07 6.14173
110       209.91 1 2 100 -596.07 2.96478
111       209.91 1 2 100 -596.07 6.07101
112       209.91 1 2 100 -596.07 2.89405
113       209.91 1 2 100 -536.463 0
114       209.91 1 2 100 -536.463 2.79561
115       209.91 1 2 100 -536.463 5.59121
116       209.91 1 2 100 -536.463 2.10364
117       209.91 1 2 100 -536.463 4.89924
118       209.91 1 2 100 -536.463 1.41166
119       209.91 1 2 100 -536.463 4.20727
120       209.91 1 2 100 -536.463 0.719692
121       209.91 1 2 100 536.463 0
122       209.91 1 2 100 536.463 3.48758
123       209.91 1 2 100 536.463 0.691972
124       209.91 1 2 100 536.463 4.17955
125       209.91 1 2 100 536.463 1.38394
126       209.91 1 2 100 536.463 4.87152
127       209.91 1 2 100 536.463 2.07591
128       209.91 1 2 100 536.463 5.56349
129       209.91 1 2 100 596.07 0
130       209.91 1 2 100 596.07 3.17696
131       209.91 1 2 100 596.07 0.0707256
132       209.91 1 2 100 596.07 3.24768
133       209.91 1 2 100 596.07 0.141451
134       209.91 1 2 100 596.07 3.31841
135       209.91 1 2 100 596.07 0.212177
136       209.91 1 2 100 596.07 3.38913
137       209.91 1 2 100 655.677 0
138       209.91 1 2 100 655.677 2.86633
139       209.91 1 2 100 655.677 5.73266
140       209.91 1 2 100 655.677 2.31581
141       209.91 1 2 100 655.677 5.18214
142       209.91 1 2 100 655.677 1.76529
143       209.91 1 2 100 655.677 4.63162
144       209.91 1 2 100 655.677 1.21477
145       209.91 1 2 100 715.284 0
146       209.91 1 2 100 715.284 2.55571
147       209.91 1 2 100 715.284 5.11142
148       209.91 1 2 100 715.284 1.38394
149       209.91 1 2 100 715.284 3.93965
150       209.91 1 2 100 715.284 0.212177
151       209.91 1 2 100 715.284 2.76789
152       209.91 1 2 100 715.284 5.3236
153       209.91 1 2 100 774.89 0
154       209.91 1 2 100 774.89 2.24509
155       209.91 1 2 100 774.89 4.49017
156       209.91 1 2 100 774.89 0.452074
157       209.91 1 2 100 774.89 2.69716
158       209.91 1 2 100 774.89 4.94225
159       209.91 1 2 100 774.89 0.904149
160       209.91 1 2 100 774.89 3.14924
161       209.91 1 2 100 834.497 0
162       209.91 1 2 100 834.497 1.93446
163       209.91 1 2 100 834.497 3.86893
164       209.91 1 2 100 834.497 5.80339
165       209.91 1 2 100 834.497 1.45467
166       209.91 1 2 100 834.497 3.38913
167       209.91 1 2 100 834.497 5.3236
168       209.91 1 2 100 834.497 0.974874
169       209.91 1 2 100 894.104 0
170       209.91 1 2 100 894.104 1.62384
171       209.91 1 2 100 894.104 3.24768
172       209.91 1 2 100 894.104 4.87152
173       209.91 1 2 100 894.104 0.212177
174       209.91 1 2 100 894.104 1.83602
175       209.91 1 2 100 894.104 3.45986
176       209.91 1 2 100 894.104 5.0837
177       209.91 1 2 100 953.711 0
178       209.91 1 2 100 953.711 1.31322
179       209.91 1 2 100 953.711 2.62644
180       209.91 1 2 100 953.711 3.93965
181       209.91 1 2 100 953.711 5.25287
182       209.91 1 2 100 953.711 0.282903
183       209.91 1 2 100 953.711 1.59612
184       209.91 1 2 100 953.711 2.90934
185       209.91 1 2 100 1013.32 0
186       209.91 1 2 100 1013.32 1.00259
187       209.91 1 2 100 1013.32 2.00519
188       209.91 1 2 100 1013.32 3.00778
189       209.91 1 2 100 1013.32 4.01038
190       209.91 1 2 100 1013.32 5.01297
191       209.91 1 2 100 1013.32 6.01557
192       209.91 1 2 100 1013.32 0.734977
193       209.91 1 2 100 1072.93 0
194       209.91 1 2 100 1072.93 0.691972
195       209.91 1 2 100 1072.93 1.38394
196       209.91 1 2 100 1072.93 2.07591
197       209.91 1 2 100 1072.93 2.76789
198       209.91 1 2 100 1072.93 3.45986
199       209.91 1 2 100 1072.93 4.15183
200       209.91 1 2 100 1072.93 4.8438
201       209.91 1 2 100 1132.53 0
202       209.91 1 2 100 1132.53 0.381349
203       209.91 1 2 100 1132.53 0.762697
204       209.91 1 2 100 1132.53 1.14405
205       209.91 1 2 100 1132.53 1.52539
206       209.91 1 2 100 1132.53 1.90674
207       209.91 1 2 100 1132.53 2.28809
208       209.91 1 2 100 1132.53 2.66944
209       209.91 1 2 100 1192.14 0
210       209.91 1 2 100 1192.14 0.0707256
211       209.91 1 2 100 1192.14 0.141451
212       209.91 1 2 100 1192.14 0.212177
213       209.91 1 2 100 1192.14 0.282903
214       209.91 1 2 100 1192.14 0.353628
215       209.91 1 2 100 1192.14 0.424354
216       209.91 1 2 100 1192.14 0.49508
217       209.91 1 2 100 1251.75 0
218       209.91 1 2 100 1251.75 6.04329
219       209.91 1 2 100 1251.75 5.80339
220       209.91 1 2 100 1251.75 5.56349
221       209.91 1 2 100 1251.75 5.3236
222       209.91 1 2 100 1251.75 5.0837
223       209.91 1 2 100 1251.75 4.8438
224       209.91 1 2 100 1251.75 4.6039
225       209.91 1 2 100 5960.7 0
226       209.91 1 2 100 5960.7 0.353628
227       209.91 1 2 100 5960.7 0.707256
228       209.91 1 2 100 5960.7 1.06088
229       209.91 1 2 100 5960.7 1.41451
230       209.91 1 2 100 5960.7 1.76814
231       209.91 1 2 100 5960.7 2.12177
232       209.91 1 2 100 5960.7 2.4754
233       209.91 1 2 100 29803.5 0
234       209.91 1 2 100 29803.5 1.76814
235       209.91 1 2 100 29803.5 3.53628
236       209.91 1 2 100 29803.5 5.30442
237       209.91 1 2 100 29803.5 0.789379
238       209.91 1 2 100 29803.5 2.55752
239       209.91 1 2 100 29803.5 4.32566
240       209.91 1 2 100 29803.5 6.0938

# Format of trapezoid gradients:
# id amplitude rise flat fall delay
# ..      Hz/m   us   us   us    us
[TRAP]
 1  1.36244e+06 1000 4500 1000   0

# Format of ADC events:
# id num dwell delay freq phase
# ..  ..    ns    us   Hz   rad
[ADC]
1 1 1000000 0 0 0

# Format of delays:
# id delay (us)
[DELAYS]
1 15000000
2 200

# Sequence Shapes
[SHAPES]

shape_id 1
num_samples 99830
0
0
5
1e-07
0
0
2
1e-07
0
0
0
1e-07
0
0
0
1e-07
0
0
0
1e-07
0
1e-07
0
1e-07
0
1e-07
0
1e-07
1e-07
0
0
1e-07
0
1e-07
1e-07
1
0
1e-07
1e-07
1
0
1e-07
1e-07
15
2e-07
1e-07
1e-07
1
2e-07
1e-07
1e-07
1
2e-07
1e-07
2e-07
1e-07
1e-07
0
2e-07
1e-07
2e-07
1e-07
2e-07
1e-07
2e-07
1e-07
2e-07
2e-07
0
1e-07
2e-07
2e-07
0
1e-07
2e-07
2e-07
0
1e-07
2e-07
2e-07
3
1e-07
2e-07
2e-07
10
3e-07
2e-07
2e-07
3
3e-07
2e-07
2e-07
0
3e-07
2e-07
2e-07
0
3e-07
2e-07
2e-07
0
3e-07
2e-07
3e-07
2e-07
3e-07
2e-07
3e-07
2e-07
3e-07
3e-07
0
2e-07
3e-07
2e-07
3e-07
3e-07
1
2e-07
3e-07
3e-07
2
2e-07
3e-07
3e-07
13
4e-07
3e-07
3e-07
2
4e-07
3e-07
3e-07
0
4e-07
3e-07
3e-07
0
4e-07
3e-07
3e-07
0
4e-07
3e-07
4e-07
3e-07
4e-07
3e-07
4e-07
3e-07
4e-07
4e-07
0
3e-07
4e-07
4e-07
0
3e-07
4e-07
4e-07
0
3e-07
4e-07
4e-07
3
3e-07
4e-07
4e-07
10
5e-07
4e-07
4e-07
2
5e-07
4e-07
4e-07
1
5e-07
4e-07
4e-07
0
5e-07
4e-07
4e-07
0
5e-07
4e-07
5e-07
4e-07
5e-07
4e-07
5e-07
4e-07
5e-07
5e-07
0
4e-07
5e-07
5e-07
0
4e-07
5e-07
5e-07
0
4e-07
5e-07
5e-07
2
4e-07
5e-07
5e-07
13
6e-07
5e-07
5e-07
2
6e-07
5e-07
5e-07
0
6e-07
5e-07
5e-07
0
6e-07
5e-07
5e-07
0
6e-07
5e-07
6e-07
5e-07
6e-07
5e-07
6e-07
6e-07
0
5e-07
6e-07
5e-07
6e-07
6e-07
0
5e-07
6e-07
6e-07
1
5e-07
6e-07
6e-07
3
5e-07
6e-07
6e-07
8
7e-07
6e-07
6e-07
3
7e-07
6e-07
6e-07
1
7e-07
6e-07
6e-07
0
7e-07
6e-07
7e-07
6e-07
6e-07
0
7e-07
6e-07
7e-07
6e-07
7e-07
7e-07
0
6e-07
7e-07
6e-07
7e-07
7e-07
0
6e-07
7e-07
7e-07
0
6e-07
7e-07
7e-07
3
6e-07
7e-07
7e-07
11
8e-07
7e-07
7e-07
2
8e-07
7e-07
7e-07
1
8e-07
7e-07
7e-07
0
8e-07
7e-07
8e-07
7e-07
7e-07
0
8e-07
7e-07
8e-07
7e-07
8e-07
8e-07
0
7e-07
8e-07
7e-07
8e-07
8e-07
0
7e-07
8e-07
8e-07
1
7e-07
8e-07
8e-07
3
7e-07
8e-07
8e-07
7
9e-07
8e-07
8e-07
4
9e-07
8e-07
8e-07
1
9e-07
8e-07
8e-07
0
9e-07
8e-07
9e-07
8e-07
9e-07
8e-07
8e-07
0
9e-07
8e-07
9e-07
9e-07
0
8e-07
9e-07
8e-07
9e-07
9e-07
0
8e-07
9e-07
9e-07
1
8e-07
9e-07
9e-07
2
8e-07
9e-07
9e-07
11
1e-06
9e-07
9e-07
2
1e-06
9e-07
9e-07
1
1e-06
9e-07
9e-07
0
1e-06
9e-07
1e-06
9e-07
1e-06
9e-07
9e-07
0
1e-06
1e-06
0
9e-07
1e-06
9e-07
1e-06
1e-06
0
9e-07
1e-06
1e-06
0
9e-07
1e-06
1e-06
1
9e-07
1e-06
1e-06
3
9e-07
1e-06
1e-06
6
1.1e-06
1e-06
1e-06
3
1.1e-06
1e-06
1e-06
1
1.1e-06
1e-06
1e-06
0
1.1e-06
1e-06
1e-06
0
1.1e-06
1e-06
1.1e-06
1e-06
1.1e-06
1e-06
1.1e-06
1e-06
1.1e-06
1e-06
1.1e-06
1e-06
1.1e-06
1.1e-06
0
1e-06
1.1e-06
1.1e-06
1
1e-06
1.1e-06
1.1e-06
2
1e-06
1.1e-06
1.1e-06
11
1.2e-06
1.1e-06
1.1e-06
2
1.2e-06
1.1e-06
1.1e-06
1
1.2e-06
1.1e-06
1.1e-06
0
1.2e-06
1.1e-06
1.2e-06
1.1e-06
1.2e-06
1.1e-06
1.2e-06
1.1e-06
1.2e-06
1.1e-06
1.2e-06
1.1e-06
1.2e-06
1.2e-06
0
1.1e-06
1.2e-06
1.2e-06
0
1.1e-06
1.2e-06
1.2e-06
1
1.1e-06
1.2e-06
1.2e-06
3
1.1e-06
1.2e-06
1.2e-06
6
1.3e-06
1.2e-06
1.2e-06
3
1.3e-06
1.2e-06
1.2e-06
1
1.3e-06
1.2e-06
1.2e-06
0
1.3e-06
1.2e-06
1.2e-06
0
1.3e-06
1.2e-06
1.3e-06
1.2e-06
1.2e-06
0
1.3e-06
1.3e-06
0
1.2e-06
1.3e-06
1.2e-06
1.3e-06
1.2e-06
1.3e-06
1.3e-06
0
1.2e-06
1.3e-06
1.3e-06
1
1.2e-06
1.3e-06
1.3e-06
2
1.2e-06
1.3e-06
1.3e-06
11
1.4e-06
1.3e-06
1.3e-06
2
1.4e-06
1.3e-06
1.3e-06
1
1.4e-06
1.3e-06
1.3e-06
0
1.4e-06
1.3e-06
1.4e-06
1.3e-06
1.3e-06
0
1.4e-06
1.3e-06
1.4e-06
1.3e-06
1.4e-06
1.4e-06
0
1.3e-06
1.4e-06
1.3e-06
1.4e-06
1.4e-06
0
1.3e-06
1.4e-06
1.4e-06
1
1.3e-06
1.4e-06
1.4e-06
3
1.3e-06
1.4e-06
1.4e-06
8
1.5e-06
1.4e-06
1.4e-06
3
1.5e-06
1.4e-06
1.4e-06
1
1.5e-06
1.4e-06
1.4e-06
0
1.5e-06
1.4e-06
1.5e-06
1.4e-06
1.4e-06
0
1.5e-06
1.4e-06
1.5e-06
1.4e-06
1.5e-06
1.4e-06
1.5e-06
1.5e-06
0
1.4e-06
1.5e-06
1.5e-06
0
1.4e-06
1.5e-06
1.5e-06
0
1.4e-06
1.5e-06
1.5e-06
2
1.4e-06
1.5e-06
1.5e-06
13
1.6e-06
1.5e-06
1.5e-06
2
1.6e-06
1.5e-06
1.5e-06
0
1.6e-06
1.5e-06
1.5e-06
0
1.6e-06
1.5e-06
1.5e-06
0
1.6e-06
1.5e-06
1.6e-06
1.5e-06
1.6e-06
1.5e-06
1.6e-06
1.5e-06
1.6e-06
1.6e-06
0
1.5e-06
1.6e-06
1.6e-06
0
1.5e-06
1.6e-06
1.6e-06
0
1.5e-06
1.6e-06
1.6e-06
2
1.5e-06
1.6e-06
1.6e-06
12
1.7e-06
1.6e-06
1.6e-06
2
1.7e-06
1.6e-06
1.6e-06
1
1.7e-06
1.6e-06
1.6e-06
0
1.7e-06
1.6e-06
1.7e-06
1.6e-06
1.7e-06
1.6e-06
1.7e-06
1.6e-06
1.7e-06
1.6e-06
1.7e-06
1.6e-06
1.7e-06
1.7e-06
0
1.6e-06
1.7e-06
1.7e-06
0
1.6e-06
1.7e-06
1.7e-06
1
1.6e-06
1.7e-06
1.7e-06
6
1.6e-06
1.7e-06
1.8e-06
1.7e-06
1.7e-06
6
1.8e-06
1.7e-06
1.7e-06
1
1.8e-06
1.7e-06
1.7e-06
1
1.8e-06
1.7e-06
1.8e-06
1.7e-06
1.7e-06
0
1.8e-06
1.7e-06
1.8e-06
1.7e-06
1.8e-06
1.7e-06
1.8e-06
1.8e-06
0
1.7e-06
1.8e-06
1.7e-06
1.8e-06
1.8e-06
0
1.7e-06
1.8e-06
1.8e-06
2
1.7e-06
1.8e-06
1.8e-06
5
1.7e-06
1.8e-06
1.8e-06
1
1.9e-06
1.8e-06
1.8e-06
5
1.9e-06
1.8e-06
1.8e-06
1
1.9e-06
1.8e-06
1.8e-06
0
1.9e-06
1.8e-06
1.8e-06
0
1.9e-06
1.8e-06
1.9e-06
1.8e-06
1.8e-06
0
1.9e-06
1.9e-06
0
1.8e-06
1.9e-06
1.8e-06
1.9e-06
1.8e-06
1.9e-06
1.9e-06
0
1.8e-06
1.9e-06
1.9e-06
1
1.8e-06
1.9e-06
1.9e-06
1
1.8e-06
1.9e-06
1.9e-06
13
2e-06
1.9e-06
1.9e-06
2
2e-06
1.9e-06
1.9e-06
1
2e-06
1.9e-06
1.9e-06
0
2e-06
1.9e-06
2e-06
1.9e-06
2e-06
1.9e-06
2e-06
1.9e-06
2e-06
1.9e-06
2e-06
1.9e-06
2e-06
2e-06
0
1.9e-06
2e-06
2e-06
0
1.9e-06
2e-06
2e-06
2
1.9e-06
2e-06
2e-06
15
2.1e-06
2e-06
2e-06
1
2.1e-06
2e-06
2e-06
1
2.1e-06
2e-06
2e-06
0
2.1e-06
2e-06
2.1e-06
2e-06
2.1e-06
2e-06
2.1e-06
2e-06
2.1e-06
2e-06
2.1e-06
2.1e-06
0
2e-06
2.1e-06
2e-06
2.1e-06
2.1e-06
1
2e-06
2.1e-06
2.1e-06
2
2e-06
2.1e-06
2.1e-06
12
2.2e-06
2.1e-06
2.1e-06
2
2.2e-06
2.1e-06
2.1e-06
1
2.2e-06
2.1e-06
2.1e-06
0
2.2e-06
2.1e-06
2.2e-06
2.1e-06
2.2e-06
2.1e-06
2.2e-06
2.1e-06
2.2e-06
2.1e-06
2.2e-06
2.1e-06
2.2e-06
2.2e-06
0
2.1e-06
2.2e-06
2.2e-06
0
2.1e-06
2.2e-06
2.2e-06
1
2.1e-06
2.2e-06
2.2e-06
17
2.3e-06
2.2e-06
2.2e-06
1
2.3e-06
2.2e-06
2.2e-06
0
2.3e-06
2.2e-06
2.2e-06
0
2.3e-06
2.2e-06
2.2e-06
0
2.3e-06
2.2e-06
2.3e-06
2.2e-06
2.3e-06
2.2e-06
2.3e-06
2.3e-06
0
2.2e-06
2.3e-06
2.3e-06
0
2.2e-06
2.3e-06
2.3e-06
0
2.2e-06
2.3e-06
2.3e-06
1
2.2e-06
2.3e-06
2.3e-06
16
2.4e-06
2.3e-06
2.3e-06
2
2.4e-06
2.3e-06
2.3e-06
0
2.4e-06
2.3e-06
2.3e-06
0
2.4e-06
2.3e-06
2.4e-06
2.3e-06
2.4e-06
2.3e-06
2.4e-06
2.3e-06
2.4e-06
2.3e-06
2.4e-06
2.3e-06
2.4e-06
2.4e-06
0
2.3e-06
2.4e-06
2.4e-06
1
2.3e-06
2.4e-06
2.4e-06
2
2.3e-06
2.4e-06
2.4e-06
12
2.5e-06
2.4e-06
2.4e-06
2
2.5e-06
2.4e-06
2.4e-06
0
2.5e-06
2.4e-06
2.4e-06
0
2.5e-06
2.4e-06
2.4e-06
0
2.5e-06
2.4e-06
2.5e-06
2.4e-06
2.5e-06
2.4e-06
2.5e-06
2.4e-06
2.5e-06
2.4e-06
2.5e-06
2.5e-06
0
2.4e-06
2.5e-06
2.5e-06
1
2.4e-06
2.5e-06
2.5e-06
1
2.4e-06
2.5e-06
2.5e-06
15
2.6e-06
2.5e-06
2.5e-06
2
2.6e-06
2.5e-06
2.5e-06
0
2.6e-06
2.5e-06
2.5e-06
0
2.6e-06
2.5e-06
2.6e-06
2.5e-06
2.6e-06
2.5e-06
2.6e-06
2.5e-06
2.6e-06
2.5e-06
2.6e-06
2.5e-06
2.6e-06
2.6e-06
0
2.5e-06
2.6e-06
2.6e-06
1
2.5e-06
2.6e-06
2.6e-06
1
2.5e-06
2.6e-06
2.6e-06
14
2.7e-06
2.6e-06
2.6e-06
2
2.7e-06
2.6e-06
2.6e-06
0
2.7e-06
2.6e-06
2.6e-06
0
2.7e-06
2.6e-06
2.6e-06
0
2.7e-06
2.6e-06
2.7e-06
2.6e-06
2.7e-06
2.6e-06
2.7e-06
2.7e-06
0
2.6e-06
2.7e-06
2.6e-06
2.7e-06
2.7e-06
0
2.6e-06
2.7e-06
2.7e-06
1
2.6e-06
2.7e-06
2.7e-06
3
2.6e-06
2.7e-06
2.7e-06
7
2.8e-06
2.7e-06
2.7e-06
4
2.8e-06
2.7e-06
2.7e-06
0
2.8e-06
2.7e-06
2.7e-06
1
2.8e-06
2.7e-06
2.8e-06
2.7e-06
2.8e-06
2.7e-06
2.7e-06
0
2.8e-06
2.8e-06
0
2.7e-06
2.8e-06
2.7e-06
2.8e-06
2.7e-06
2.8e-06
2.8e-06
0
2.7e-06
2.8e-06
2.8e-06
1
2.7e-06
2.8e-06
2.8e-06
2
2.7e-06
2.8e-06
2.8e-06
11
2.9e-06
2.8e-06
2.8e-06
2
2.9e-06
2.8e-06
2.8e-06
1
2.9e-06
2.8e-06
2.8e-06
0
2.9e-06
2.8e-06
2.9e-06
2.8e-06
2.8e-06
0
2.9e-06
2.8e-06
2.9e-06
2.8e-06
2.9e-06
2.9e-06
0
2.8e-06
2.9e-06
2.8e-06
2.9e-06
2.9e-06
0
2.8e-06
2.9e-06
2.9e-06
1
2.8e-06
2.9e-06
2.9e-06
2
2.8e-06
2.9e-06
2.9e-06
10
3e-06
2.9e-06
2.9e-06
3
3e-06
2.9e-06
2.9e-06
0
3e-06
2.9e-06
2.9e-06
0
3e-06
2.9e-06
2.9e-06
0
3e-06
2.9e-06
3e-06
2.9e-06
3e-06
2.9e-06
3e-06
2.9e-06
3e-06
2.9e-06
3e-06
3e-06
0
2.9e-06
3e-06
3e-06
0
2.9e-06
3e-06
3e-06
1
2.9e-06
3e-06
3e-06
6
2.9e-06
3e-06
3e-06
0
3.1e-06
3e-06
3e-06
6
3.1e-06
3e-06
3e-06
1
3.1e-06
3e-06
3e-06
0
3.1e-06
3e-06
3e-06
0
3.1e-06
3e-06
3.1e-06
3e-06
3.1e-06
3e-06
3.1e-06
3e-06
3.1e-06
3e-06
3.1e-06
3.1e-06
0
3e-06
3.1e-06
3.1e-06
0
3e-06
3.1e-06
3.1e-06
0
3e-06
3.1e-06
3.1e-06
3
3e-06
3.1e-06
3.1e-06
9
3.2e-06
3.1e-06
3.1e-06
3
3.2e-06
3.1e-06
3.1e-06
1
3.2e-06
3.1e-06
3.1e-06
0
3.2e-06
3.1e-06
3.2e-06
3.1e-06
3.1e-06
0
3.2e-06
3.1e-06
3.2e-06
3.1e-06
3.2e-06
3.2e-06
0
3.1e-06
3.2e-06
3.1e-06
3.2e-06
3.2e-06
0
3.1e-06
3.2e-06
3.2e-06
1
3.1e-06
3.2e-06
3.2e-06
2
3.1e-06
3.2e-06
3.2e-06
11
3.3e-06
3.2e-06
3.2e-06
2
3.3e-06
3.2e-06
3.2e-06
1
3.3e-06
3.2e-06
3.2e-06
0
3.3e-06
3.2e-06
3.3e-06
3.2e-06
3.2e-06
0
3.3e-06
3.2e-06
3.3e-06
3.3e-06
0
3.2e-06
3.3e-06
3.2e-06
3.3e-06
3.2e-06
3.3e-06
3.3e-06
0
3.2e-06
3.3e-06
3.3e-06
1
3.2e-06
3.3e-06
3.3e-06
3
3.2e-06
3.3e-06
3.3e-06
8
3.4e-06
3.3e-06
3.3e-06
3
3.4e-06
3.3e-06
3.3e-06
1
3.4e-06
3.3e-06
3.3e-06
0
3.4e-06
3.3e-06
3.3e-06
0
3.4e-06
3.3e-06
3.4e-06
3.3e-06
3.4e-06
3.3e-06
3.4e-06
3.3e-06
3.4e-06
3.4e-06
0
3.3e-06
3.4e-06
3.3e-06
3.4e-06
3.4e-06
1
3.3e-06
3.4e-06
3.4e-06
1
3.3e-06
3.4e-06
3.4e-06
16
3.5e-06
3.4e-06
3.4e-06
1
3.5e-06
3.4e-06
3.4e-06
1
3.5e-06
3.4e-06
3.5e-06
3.4e-06
3.4e-06
0
3.5e-06
3.4e-06
3.5e-06
3.4e-06
3.5e-06
3.4e-06
3.5e-06
3.4e-06
3.5e-06
3.5e-06
0
3.4e-06
3.5e-06
3.5e-06
0
3.4e-06
3.5e-06
3.5e-06
1
3.4e-06
3.5e-06
3.5e-06
3
3.4e-06
3.5e-06
3.5e-06
8
3.6e-06
3.5e-06
3.5e-06
3
3.6e-06
3.5e-06
3.5e-06
1
3.6e-06
3.5e-06
3.5e-06
0
3.6e-06
3.5e-06
3.6e-06
3.5e-06
3.5e-06
0
3.6e-06
3.5e-06
3.6e-06
3.5e-06
3.6e-06
3.6e-06
0
3.5e-06
3.6e-06
3.5e-06
3.6e-06
3.6e-06
0
3.5e-06
3.6e-06
3.6e-06
1
3.5e-06
3.6e-06
3.6e-06
2
3.5e-06
3.6e-06
3.6e-06
11
3.7e-06
3.6e-06
3.6e-06
3
3.7e-06
3.6e-06
3.6e-06
0
3.7e-06
3.6e-06
3.6e-06
0
3.7e-06
3.6e-06
3.6e-06
0
3.7e-06
3.6e-06
3.7e-06
3.6e-06
3.7e-06
3.6e-06
3.7e-06
3.6e-06
3.7e-06
3.7e-06
0
3.6e-06
3.7e-06
3.7e-06
0
3.6e-06
3.7e-06
3.7e-06
0
3.6e-06
3.7e-06
3.7e-06
3
3.6e-06
3.7e-06
3.7e-06
11
3.8e-06
3.7e-06
3.7e-06
2
3.8e-06
3.7e-06
3.7e-06
1
3.8e-06
3.7e-06
3.7e-06
0
3.8e-06
3.7e-06
3.8e-06
3.7e-06
3.7e-06
0
3.8e-06
3.7e-06
3.8e-06
3.7e-06
3.8e-06
3.8e-06
0
3.7e-06
3.8e-06
3.7e-06
3.8e-06
3.8e-06
0
