# Pulseq sequence file
# Created by MATLAB mr toolbox

# Created for Pulseq-CEST
# https://pulseq-cest.github.io/
# Created by: Kai Herz
# Created at: 28-Feb-2024 16:37:47

[VERSION]
major 1
minor 4
revision 0

[DEFINITIONS]
AdcRasterTime 1e-07 
B0 2.893649 
B1pa 1.78 
B1rms 1.99620497 
BlockDurationRaster 1e-05 
DCsat 0.909090909 
FREQ 123.2 
GradientRasterTime 1e-05 
M0_offset -300 
RadiofrequencyRasterTime 1e-06 
Trec 3.5 
Trec_M0 3.5 
Tsat 1.975 
n_pulses 36 
num_meas 34 
offsets_ppm -300 -4 -3.75 -3.5 -3.25 -3 -2.75 -2.5 -2.25 -2 -1.75 -1.5 -1.25 -1 -0.75 -0.5 -0.25 0 0.25 0.5 0.75 1 1.25 1.5 1.75 2 2.25 2.5 2.75 3 3.25 3.5 3.75 4 
seq_id_string APTw_3T_001_2uT_36SincGauss_DC90_2s_braintumor 
spoiling 1 
td 0.005 
tp 0.05 

# Format of blocks:
# NUM DUR RF  GX  GY  GZ  ADC  EXT
[BLOCKS]
   1 350000   0   0   0   0  0  0
   2 5013   1   0   0   0  0  0
   3 500   0   0   0   0  0  0
   4 5013   1   0   0   0  0  0
   5 500   0   0   0   0  0  0
   6 5013   1   0   0   0  0  0
   7 500   0   0   0   0  0  0
   8 5013   1   0   0   0  0  0
   9 500   0   0   0   0  0  0
  10 5013   1   0   0   0  0  0
  11 500   0   0   0   0  0  0
  12 5013   1   0   0   0  0  0
  13 500   0   0   0   0  0  0
  14 5013   1   0   0   0  0  0
  15 500   0   0   0   0  0  0
  16 5013   1   0   0   0  0  0
  17 500   0   0   0   0  0  0
  18 5013   1   0   0   0  0  0
  19 500   0   0   0   0  0  0
  20 5013   1   0   0   0  0  0
  21 500   0   0   0   0  0  0
  22 5013   1   0   0   0  0  0
  23 500   0   0   0   0  0  0
  24 5013   1   0   0   0  0  0
  25 500   0   0   0   0  0  0
  26 5013   1   0   0   0  0  0
  27 500   0   0   0   0  0  0
  28 5013   1   0   0   0  0  0
  29 500   0   0   0   0  0  0
  30 5013   1   0   0   0  0  0
  31 500   0   0   0   0  0  0
  32 5013   1   0   0   0  0  0
  33 500   0   0   0   0  0  0
  34 5013   1   0   0   0  0  0
  35 500   0   0   0   0  0  0
  36 5013   1   0   0   0  0  0
  37 500   0   0   0   0  0  0
  38 5013   1   0   0   0  0  0
  39 500   0   0   0   0  0  0
  40 5013   1   0   0   0  0  0
  41 500   0   0   0   0  0  0
  42 5013   1   0   0   0  0  0
  43 500   0   0   0   0  0  0
  44 5013   1   0   0   0  0  0
  45 500   0   0   0   0  0  0
  46 5013   1   0   0   0  0  0
  47 500   0   0   0   0  0  0
  48 5013   1   0   0   0  0  0
  49 500   0   0   0   0  0  0
  50 5013   1   0   0   0  0  0
  51 500   0   0   0   0  0  0
  52 5013   1   0   0   0  0  0
  53 500   0   0   0   0  0  0
  54 5013   1   0   0   0  0  0
  55 500   0   0   0   0  0  0
  56 5013   1   0   0   0  0  0
  57 500   0   0   0   0  0  0
  58 5013   1   0   0   0  0  0
  59 500   0   0   0   0  0  0
  60 5013   1   0   0   0  0  0
  61 500   0   0   0   0  0  0
  62 5013   1   0   0   0  0  0
  63 500   0   0   0   0  0  0
  64 5013   1   0   0   0  0  0
  65 500   0   0   0   0  0  0
  66 5013   1   0   0   0  0  0
  67 500   0   0   0   0  0  0
  68 5013   1   0   0   0  0  0
  69 500   0   0   0   0  0  0
  70 5013   1   0   0   0  0  0
  71 500   0   0   0   0  0  0
  72 5013   1   0   0   0  0  0
  73 650   0   1   1   1  0  0
  74 100   0   0   0   0  1  0
  75 350000   0   0   0   0  0  0
  76 5013   2   0   0   0  0  0
  77 500   0   0   0   0  0  0
  78 5013   3   0   0   0  0  0
  79 500   0   0   0   0  0  0
  80 5013   4   0   0   0  0  0
  81 500   0   0   0   0  0  0
  82 5013   5   0   0   0  0  0
  83 500   0   0   0   0  0  0
  84 5013   6   0   0   0  0  0
  85 500   0   0   0   0  0  0
  86 5013   7   0   0   0  0  0
  87 500   0   0   0   0  0  0
  88 5013   8   0   0   0  0  0
  89 500   0   0   0   0  0  0
  90 5013   9   0   0   0  0  0
  91 500   0   0   0   0  0  0
  92 5013  10   0   0   0  0  0
  93 500   0   0   0   0  0  0
  94 5013  11   0   0   0  0  0
  95 500   0   0   0   0  0  0
  96 5013  12   0   0   0  0  0
  97 500   0   0   0   0  0  0
  98 5013  13   0   0   0  0  0
  99 500   0   0   0   0  0  0
 100 5013  14   0   0   0  0  0
 101 500   0   0   0   0  0  0
 102 5013  15   0   0   0  0  0
 103 500   0   0   0   0  0  0
 104 5013  16   0   0   0  0  0
 105 500   0   0   0   0  0  0
 106 5013  17   0   0   0  0  0
 107 500   0   0   0   0  0  0
 108 5013  18   0   0   0  0  0
 109 500   0   0   0   0  0  0
 110 5013  19   0   0   0  0  0
 111 500   0   0   0   0  0  0
 112 5013  20   0   0   0  0  0
 113 500   0   0   0   0  0  0
 114 5013  21   0   0   0  0  0
 115 500   0   0   0   0  0  0
 116 5013  22   0   0   0  0  0
 117 500   0   0   0   0  0  0
 118 5013  23   0   0   0  0  0
 119 500   0   0   0   0  0  0
 120 5013  24   0   0   0  0  0
 121 500   0   0   0   0  0  0
 122 5013  25   0   0   0  0  0
 123 500   0   0   0   0  0  0
 124 5013  26   0   0   0  0  0
 125 500   0   0   0   0  0  0
 126 5013   2   0   0   0  0  0
 127 500   0   0   0   0  0  0
 128 5013   3   0   0   0  0  0
 129 500   0   0   0   0  0  0
 130 5013   4   0   0   0  0  0
 131 500   0   0   0   0  0  0
 132 5013   5   0   0   0  0  0
 133 500   0   0   0   0  0  0
 134 5013   6   0   0   0  0  0
 135 500   0   0   0   0  0  0
 136 5013   7   0   0   0  0  0
 137 500   0   0   0   0  0  0
 138 5013   8   0   0   0  0  0
 139 500   0   0   0   0  0  0
 140 5013   9   0   0   0  0  0
 141 500   0   0   0   0  0  0
 142 5013  10   0   0   0  0  0
 143 500   0   0   0   0  0  0
 144 5013  11   0   0   0  0  0
 145 500   0   0   0   0  0  0
 146 5013  12   0   0   0  0  0
 147 650   0   1   1   1  0  0
 148 100   0   0   0   0  1  0
 149 350000   0   0   0   0  0  0
 150 5013  27   0   0   0  0  0
 151 500   0   0   0   0  0  0
 152 5013  28   0   0   0  0  0
 153 500   0   0   0   0  0  0
 154 5013  29   0   0   0  0  0
 155 500   0   0   0   0  0  0
 156 5013  30   0   0   0  0  0
 157 500   0   0   0   0  0  0
 158 5013  31   0   0   0  0  0
 159 500   0   0   0   0  0  0
 160 5013  32   0   0   0  0  0
 161 500   0   0   0   0  0  0
 162 5013  33   0   0   0  0  0
 163 500   0   0   0   0  0  0
 164 5013  34   0   0   0  0  0
 165 500   0   0   0   0  0  0
 166 5013  35   0   0   0  0  0
 167 500   0   0   0   0  0  0
 168 5013  36   0   0   0  0  0
 169 500   0   0   0   0  0  0
 170 5013  27   0   0   0  0  0
 171 500   0   0   0   0  0  0
 172 5013  28   0   0   0  0  0
 173 500   0   0   0   0  0  0
 174 5013  29   0   0   0  0  0
 175 500   0   0   0   0  0  0
 176 5013  30   0   0   0  0  0
 177 500   0   0   0   0  0  0
 178 5013  31   0   0   0  0  0
 179 500   0   0   0   0  0  0
 180 5013  32   0   0   0  0  0
 181 500   0   0   0   0  0  0
 182 5013  33   0   0   0  0  0
 183 500   0   0   0   0  0  0
 184 5013  34   0   0   0  0  0
 185 500   0   0   0   0  0  0
 186 5013  35   0   0   0  0  0
 187 500   0   0   0   0  0  0
 188 5013  36   0   0   0  0  0
 189 500   0   0   0   0  0  0
 190 5013  27   0   0   0  0  0
 191 500   0   0   0   0  0  0
 192 5013  28   0   0   0  0  0
 193 500   0   0   0   0  0  0
 194 5013  29   0   0   0  0  0
 195 500   0   0   0   0  0  0
 196 5013  30   0   0   0  0  0
 197 500   0   0   0   0  0  0
 198 5013  31   0   0   0  0  0
 199 500   0   0   0   0  0  0
 200 5013  32   0   0   0  0  0
 201 500   0   0   0   0  0  0
 202 5013  33   0   0   0  0  0
 203 500   0   0   0   0  0  0
 204 5013  34   0   0   0  0  0
 205 500   0   0   0   0  0  0
 206 5013  35   0   0   0  0  0
 207 500   0   0   0   0  0  0
 208 5013  36   0   0   0  0  0
 209 500   0   0   0   0  0  0
 210 5013  27   0   0   0  0  0
 211 500   0   0   0   0  0  0
 212 5013  28   0   0   0  0  0
 213 500   0   0   0   0  0  0
 214 5013  29   0   0   0  0  0
 215 500   0   0   0   0  0  0
 216 5013  30   0   0   0  0  0
 217 500   0   0   0   0  0  0
 218 5013  31   0   0   0  0  0
 219 500   0   0   0   0  0  0
 220 5013  32   0   0   0  0  0
 221 650   0   1   1   1  0  0
 222 100   0   0   0   0  1  0
 223 350000   0   0   0   0  0  0
 224 5013  37   0   0   0  0  0
 225 500   0   0   0   0  0  0
 226 5013  38   0   0   0  0  0
 227 500   0   0   0   0  0  0
 228 5013  39   0   0   0  0  0
 229 500   0   0   0   0  0  0
 230 5013  40   0   0   0  0  0
 231 500   0   0   0   0  0  0
 232 5013  41   0   0   0  0  0
 233 500   0   0   0   0  0  0
 234 5013  42   0   0   0  0  0
 235 500   0   0   0   0  0  0
 236 5013  43   0   0   0  0  0
 237 500   0   0   0   0  0  0
 238 5013  44   0   0   0  0  0
 239 500   0   0   0   0  0  0
 240 5013  45   0   0   0  0  0
 241 500   0   0   0   0  0  0
 242 5013  46   0   0   0  0  0
 243 500   0   0   0   0  0  0
 244 5013  47   0   0   0  0  0
 245 500   0   0   0   0  0  0
 246 5013  48   0   0   0  0  0
 247 500   0   0   0   0  0  0
 248 5013  49   0   0   0  0  0
 249 500   0   0   0   0  0  0
 250 5013  50   0   0   0  0  0
 251 500   0   0   0   0  0  0
 252 5013  51   0   0   0  0  0
 253 500   0   0   0   0  0  0
 254 5013  52   0   0   0  0  0
 255 500   0   0   0   0  0  0
 256 5013  53   0   0   0  0  0
 257 500   0   0   0   0  0  0
 258 5013  54   0   0   0  0  0
 259 500   0   0   0   0  0  0
 260 5013  55   0   0   0  0  0
 261 500   0   0   0   0  0  0
 262 5013  56   0   0   0  0  0
 263 500   0   0   0   0  0  0
 264 5013  57   0   0   0  0  0
 265 500   0   0   0   0  0  0
 266 5013  58   0   0   0  0  0
 267 500   0   0   0   0  0  0
 268 5013  59   0   0   0  0  0
 269 500   0   0   0   0  0  0
 270 5013  60   0   0   0  0  0
 271 500   0   0   0   0  0  0
 272 5013  61   0   0   0  0  0
 273 500   0   0   0   0  0  0
 274 5013  62   0   0   0  0  0
 275 500   0   0   0   0  0  0
 276 5013  38   0   0   0  0  0
 277 500   0   0   0   0  0  0
 278 5013  39   0   0   0  0  0
 279 500   0   0   0   0  0  0
 280 5013  40   0   0   0  0  0
 281 500   0   0   0   0  0  0
 282 5013  41   0   0   0  0  0
 283 500   0   0   0   0  0  0
 284 5013  42   0   0   0  0  0
 285 500   0   0   0   0  0  0
 286 5013  43   0   0   0  0  0
 287 500   0   0   0   0  0  0
 288 5013  44   0   0   0  0  0
 289 500   0   0   0   0  0  0
 290 5013  45   0   0   0  0  0
 291 500   0   0   0   0  0  0
[RF]
1      141.675 1 2 0 100 -36960 0
2      141.675 1 2 0 100 -492.8 0
3      141.675 1 2 0 100 -492.8 2.26195
4      141.675 1 2 0 100 -492.8 4.52389
5      141.675 1 2 0 100 -492.8 0.502655
6      141.675 1 2 0 100 -492.8 2.7646
7      141.675 1 2 0 100 -492.8 5.02655
8      141.675 1 2 0 100 -492.8 1.00531
9      141.675 1 2 0 100 -492.8 3.26726
10      141.675 1 2 0 100 -492.8 5.5292
11      141.675 1 2 0 100 -492.8 1.50796
12      141.675 1 2 0 100 -492.8 3.76991
13      141.675 1 2 0 100 -492.8 6.03186
14      141.675 1 2 0 100 -492.8 2.01062
15      141.675 1 2 0 100 -492.8 4.27257
16      141.675 1 2 0 100 -492.8 0.251327
17      141.675 1 2 0 100 -492.8 2.51327
18      141.675 1 2 0 100 -492.8 4.77522
19      141.675 1 2 0 100 -492.8 0.753982
20      141.675 1 2 0 100 -492.8 3.01593
21      141.675 1 2 0 100 -492.8 5.27788
22      141.675 1 2 0 100 -492.8 1.25664
23      141.675 1 2 0 100 -492.8 3.51858
24      141.675 1 2 0 100 -492.8 5.78053
25      141.675 1 2 0 100 -492.8 1.75929
26      141.675 1 2 0 100 -492.8 4.02124
27      141.675 1 2 0 100 -462 0
28      141.675 1 2 0 100 -462 5.65487
29      141.675 1 2 0 100 -462 5.02655
30      141.675 1 2 0 100 -462 4.39823
31      141.675 1 2 0 100 -462 3.76991
32      141.675 1 2 0 100 -462 3.14159
33      141.675 1 2 0 100 -462 2.51327
34      141.675 1 2 0 100 -462 1.88496
35      141.675 1 2 0 100 -462 1.25664
36      141.675 1 2 0 100 -462 0.628319
37      141.675 1 2 0 100 -431.2 0
38      141.675 1 2 0 100 -431.2 2.7646
39      141.675 1 2 0 100 -431.2 5.5292
40      141.675 1 2 0 100 -431.2 2.01062
41      141.675 1 2 0 100 -431.2 4.77522
42      141.675 1 2 0 100 -431.2 1.25664
43      141.675 1 2 0 100 -431.2 4.02124
44      141.675 1 2 0 100 -431.2 0.502655
45      141.675 1 2 0 100 -431.2 3.26726
46      141.675 1 2 0 100 -431.2 6.03186
47      141.675 1 2 0 100 -431.2 2.51327
48      141.675 1 2 0 100 -431.2 5.27788
49      141.675 1 2 0 100 -431.2 1.75929
50      141.675 1 2 0 100 -431.2 4.52389
51      141.675 1 2 0 100 -431.2 1.00531
52      141.675 1 2 0 100 -431.2 3.76991
53      141.675 1 2 0 100 -431.2 0.251327
54      141.675 1 2 0 100 -431.2 3.01593
55      141.675 1 2 0 100 -431.2 5.78053
56      141.675 1 2 0 100 -431.2 2.26195
57      141.675 1 2 0 100 -431.2 5.02655
58      141.675 1 2 0 100 -431.2 1.50796
59      141.675 1 2 0 100 -431.2 4.27257
60      141.675 1 2 0 100 -431.2 0.753982
61      141.675 1 2 0 100 -431.2 3.51858
62      141.675 1 2 0 100 -431.2 2.77112e-13
63      141.675 1 2 0 100 -400.4 0
64      141.675 1 2 0 100 -400.4 6.15752
65      141.675 1 2 0 100 -400.4 6.03186
66      141.675 1 2 0 100 -400.4 5.90619
67      141.675 1 2 0 100 -400.4 5.78053
68      141.675 1 2 0 100 -400.4 5.65487
69      141.675 1 2 0 100 -400.4 5.5292
70      141.675 1 2 0 100 -400.4 5.40354
71      141.675 1 2 0 100 -400.4 5.27788
72      141.675 1 2 0 100 -400.4 5.15221
73      141.675 1 2 0 100 -400.4 5.02655
74      141.675 1 2 0 100 -400.4 4.90088
75      141.675 1 2 0 100 -400.4 4.77522
76      141.675 1 2 0 100 -400.4 4.64956
77      141.675 1 2 0 100 -400.4 4.52389
78      141.675 1 2 0 100 -400.4 4.39823
79      141.675 1 2 0 100 -400.4 4.27257
80      141.675 1 2 0 100 -400.4 4.1469
81      141.675 1 2 0 100 -400.4 4.02124
82      141.675 1 2 0 100 -400.4 3.89557
83      141.675 1 2 0 100 -400.4 3.76991
84      141.675 1 2 0 100 -400.4 3.64425
85      141.675 1 2 0 100 -400.4 3.51858
86      141.675 1 2 0 100 -400.4 3.39292
87      141.675 1 2 0 100 -400.4 3.26726
88      141.675 1 2 0 100 -400.4 3.14159
89      141.675 1 2 0 100 -400.4 3.01593
90      141.675 1 2 0 100 -400.4 2.89027
91      141.675 1 2 0 100 -400.4 2.7646
92      141.675 1 2 0 100 -400.4 2.63894
93      141.675 1 2 0 100 -400.4 2.51327
94      141.675 1 2 0 100 -400.4 2.38761
95      141.675 1 2 0 100 -400.4 2.26195
96      141.675 1 2 0 100 -400.4 2.13628
97      141.675 1 2 0 100 -400.4 2.01062
98      141.675 1 2 0 100 -400.4 1.88496
99      141.675 1 2 0 100 -369.6 0
100      141.675 1 2 0 100 -369.6 3.26726
101      141.675 1 2 0 100 -369.6 0.251327
102      141.675 1 2 0 100 -369.6 3.51858
103      141.675 1 2 0 100 -369.6 0.502655
104      141.675 1 2 0 100 -369.6 3.76991
105      141.675 1 2 0 100 -369.6 0.753982
106      141.675 1 2 0 100 -369.6 4.02124
107      141.675 1 2 0 100 -369.6 1.00531
108      141.675 1 2 0 100 -369.6 4.27257
109      141.675 1 2 0 100 -369.6 1.25664
110      141.675 1 2 0 100 -369.6 4.52389
111      141.675 1 2 0 100 -369.6 1.50796
112      141.675 1 2 0 100 -369.6 4.77522
113      141.675 1 2 0 100 -369.6 1.75929
114      141.675 1 2 0 100 -369.6 5.02655
115      141.675 1 2 0 100 -369.6 2.01062
116      141.675 1 2 0 100 -369.6 5.27788
117      141.675 1 2 0 100 -369.6 2.26195
118      141.675 1 2 0 100 -369.6 5.5292
119      141.675 1 2 0 100 -369.6 2.51327
120      141.675 1 2 0 100 -369.6 5.78053
121      141.675 1 2 0 100 -369.6 2.7646
122      141.675 1 2 0 100 -369.6 6.03186
123      141.675 1 2 0 100 -369.6 3.01593
124      141.675 1 2 0 100 -369.6 4.9738e-13
125      141.675 1 2 0 100 -338.8 0
126      141.675 1 2 0 100 -338.8 0.376991
127      141.675 1 2 0 100 -338.8 0.753982
128      141.675 1 2 0 100 -338.8 1.13097
129      141.675 1 2 0 100 -338.8 1.50796
130      141.675 1 2 0 100 -338.8 1.88496
131      141.675 1 2 0 100 -338.8 2.26195
132      141.675 1 2 0 100 -338.8 2.63894
133      141.675 1 2 0 100 -338.8 3.01593
134      141.675 1 2 0 100 -338.8 3.39292
135      141.675 1 2 0 100 -338.8 3.76991
136      141.675 1 2 0 100 -338.8 4.1469
137      141.675 1 2 0 100 -338.8 4.52389
138      141.675 1 2 0 100 -338.8 4.90088
139      141.675 1 2 0 100 -338.8 5.27788
140      141.675 1 2 0 100 -338.8 5.65487
141      141.675 1 2 0 100 -338.8 6.03186
142      141.675 1 2 0 100 -338.8 0.125664
143      141.675 1 2 0 100 -338.8 0.502655
144      141.675 1 2 0 100 -338.8 0.879646
145      141.675 1 2 0 100 -338.8 1.25664
146      141.675 1 2 0 100 -338.8 1.63363
147      141.675 1 2 0 100 -338.8 2.01062
148      141.675 1 2 0 100 -338.8 2.38761
149      141.675 1 2 0 100 -338.8 2.7646
150      141.675 1 2 0 100 -338.8 3.14159
151      141.675 1 2 0 100 -338.8 3.51858
152      141.675 1 2 0 100 -338.8 3.89557
153      141.675 1 2 0 100 -338.8 4.27257
154      141.675 1 2 0 100 -338.8 4.64956
155      141.675 1 2 0 100 -338.8 5.02655
156      141.675 1 2 0 100 -338.8 5.40354
157      141.675 1 2 0 100 -338.8 5.78053
158      141.675 1 2 0 100 -338.8 6.15752
159      141.675 1 2 0 100 -338.8 0.251327
160      141.675 1 2 0 100 -338.8 0.628319
161      141.675 1 2 0 100 -308 0
162      141.675 1 2 0 100 -308 3.76991
163      141.675 1 2 0 100 -308 1.25664
164      141.675 1 2 0 100 -308 5.02655
165      141.675 1 2 0 100 -308 2.51327
166      141.675 1 2 0 100 -308 3.55271e-14
167      141.675 1 2 0 100 -308 6.39488e-14
168      141.675 1 2 0 100 -308 9.23706e-14
169      141.675 1 2 0 100 -308 1.20792e-13
170      141.675 1 2 0 100 -308 1.49214e-13
171      141.675 1 2 0 100 -308 1.77636e-13
172      141.675 1 2 0 100 -308 2.06057e-13
173      141.675 1 2 0 100 -277.2 0
174      141.675 1 2 0 100 -277.2 0.879646
175      141.675 1 2 0 100 -277.2 1.75929
176      141.675 1 2 0 100 -277.2 2.63894
177      141.675 1 2 0 100 -277.2 3.51858
178      141.675 1 2 0 100 -277.2 4.39823
179      141.675 1 2 0 100 -277.2 5.27788
180      141.675 1 2 0 100 -277.2 6.15752
181      141.675 1 2 0 100 -277.2 0.753982
182      141.675 1 2 0 100 -277.2 1.63363
183      141.675 1 2 0 100 -277.2 2.51327
184      141.675 1 2 0 100 -277.2 3.39292
185      141.675 1 2 0 100 -277.2 4.27257
186      141.675 1 2 0 100 -277.2 5.15221
187      141.675 1 2 0 100 -277.2 6.03186
188      141.675 1 2 0 100 -277.2 0.628319
189      141.675 1 2 0 100 -277.2 1.50796
190      141.675 1 2 0 100 -277.2 2.38761
191      141.675 1 2 0 100 -277.2 3.26726
192      141.675 1 2 0 100 -277.2 4.1469
193      141.675 1 2 0 100 -277.2 5.02655
194      141.675 1 2 0 100 -277.2 5.90619
195      141.675 1 2 0 100 -277.2 0.502655
196      141.675 1 2 0 100 -277.2 1.3823
197      141.675 1 2 0 100 -277.2 2.26195
198      141.675 1 2 0 100 -277.2 3.14159
199      141.675 1 2 0 100 -277.2 4.02124
200      141.675 1 2 0 100 -277.2 4.90088
201      141.675 1 2 0 100 -277.2 5.78053
202      141.675 1 2 0 100 -277.2 0.376991
203      141.675 1 2 0 100 -277.2 1.25664
204      141.675 1 2 0 100 -277.2 2.13628
205      141.675 1 2 0 100 -277.2 3.01593
206      141.675 1 2 0 100 -277.2 3.89557
207      141.675 1 2 0 100 -277.2 4.77522
208      141.675 1 2 0 100 -277.2 5.65487
209      141.675 1 2 0 100 -246.4 0
210      141.675 1 2 0 100 -246.4 4.27257
211      141.675 1 2 0 100 -246.4 2.26195
212      141.675 1 2 0 100 -246.4 0.251327
213      141.675 1 2 0 100 -246.4 4.52389
214      141.675 1 2 0 100 -246.4 2.51327
215      141.675 1 2 0 100 -246.4 0.502655
216      141.675 1 2 0 100 -246.4 4.77522
217      141.675 1 2 0 100 -246.4 2.7646
218      141.675 1 2 0 100 -246.4 0.753982
219      141.675 1 2 0 100 -246.4 5.02655
220      141.675 1 2 0 100 -246.4 3.01593
221      141.675 1 2 0 100 -246.4 1.00531
222      141.675 1 2 0 100 -246.4 5.27788
223      141.675 1 2 0 100 -246.4 3.26726
224      141.675 1 2 0 100 -246.4 1.25664
225      141.675 1 2 0 100 -246.4 5.5292
226      141.675 1 2 0 100 -246.4 3.51858
227      141.675 1 2 0 100 -246.4 1.50796
228      141.675 1 2 0 100 -246.4 5.78053
229      141.675 1 2 0 100 -246.4 3.76991
230      141.675 1 2 0 100 -246.4 1.75929
231      141.675 1 2 0 100 -246.4 6.03186
232      141.675 1 2 0 100 -246.4 4.02124
233      141.675 1 2 0 100 -246.4 2.01062
234      141.675 1 2 0 100 -246.4 6.28319
235      141.675 1 2 0 100 -215.6 0
236      141.675 1 2 0 100 -215.6 1.3823
237      141.675 1 2 0 100 -215.6 2.7646
238      141.675 1 2 0 100 -215.6 4.1469
239      141.675 1 2 0 100 -215.6 5.5292
240      141.675 1 2 0 100 -215.6 0.628319
241      141.675 1 2 0 100 -215.6 2.01062
242      141.675 1 2 0 100 -215.6 3.39292
243      141.675 1 2 0 100 -215.6 4.77522
244      141.675 1 2 0 100 -215.6 6.15752
245      141.675 1 2 0 100 -215.6 1.25664
246      141.675 1 2 0 100 -215.6 2.63894
247      141.675 1 2 0 100 -215.6 4.02124
248      141.675 1 2 0 100 -215.6 5.40354
249      141.675 1 2 0 100 -215.6 0.502655
250      141.675 1 2 0 100 -215.6 1.88496
251      141.675 1 2 0 100 -215.6 3.26726
252      141.675 1 2 0 100 -215.6 4.64956
253      141.675 1 2 0 100 -215.6 6.03186
254      141.675 1 2 0 100 -215.6 1.13097
255      141.675 1 2 0 100 -215.6 2.51327
256      141.675 1 2 0 100 -215.6 3.89557
257      141.675 1 2 0 100 -215.6 5.27788
258      141.675 1 2 0 100 -215.6 0.376991
259      141.675 1 2 0 100 -215.6 1.75929
260      141.675 1 2 0 100 -215.6 3.14159
261      141.675 1 2 0 100 -215.6 4.52389
262      141.675 1 2 0 100 -215.6 5.90619
263      141.675 1 2 0 100 -215.6 1.00531
264      141.675 1 2 0 100 -215.6 2.38761
265      141.675 1 2 0 100 -215.6 3.76991
266      141.675 1 2 0 100 -215.6 5.15221
267      141.675 1 2 0 100 -215.6 0.251327
268      141.675 1 2 0 100 -215.6 1.63363
269      141.675 1 2 0 100 -215.6 3.01593
270      141.675 1 2 0 100 -215.6 4.39823
271      141.675 1 2 0 100 -184.8 0
272      141.675 1 2 0 100 -184.8 4.77522
273      141.675 1 2 0 100 -184.8 3.26726
274      141.675 1 2 0 100 -184.8 1.75929
275      141.675 1 2 0 100 -184.8 0.251327
276      141.675 1 2 0 100 -184.8 5.02655
277      141.675 1 2 0 100 -184.8 3.51858
278      141.675 1 2 0 100 -184.8 2.01062
279      141.675 1 2 0 100 -184.8 0.502655
280      141.675 1 2 0 100 -184.8 5.27788
281      141.675 1 2 0 100 -184.8 3.76991
282      141.675 1 2 0 100 -184.8 2.26195
283      141.675 1 2 0 100 -184.8 0.753982
284      141.675 1 2 0 100 -184.8 5.5292
285      141.675 1 2 0 100 -184.8 4.02124
286      141.675 1 2 0 100 -184.8 2.51327
287      141.675 1 2 0 100 -184.8 1.00531
288      141.675 1 2 0 100 -184.8 5.78053
289      141.675 1 2 0 100 -184.8 4.27257
290      141.675 1 2 0 100 -184.8 2.7646
291      141.675 1 2 0 100 -184.8 1.25664
292      141.675 1 2 0 100 -184.8 6.03186
293      141.675 1 2 0 100 -184.8 4.52389
294      141.675 1 2 0 100 -184.8 3.01593
295      141.675 1 2 0 100 -184.8 1.50796
296      141.675 1 2 0 100 -184.8 2.13163e-13
297      141.675 1 2 0 100 -154 0
298      141.675 1 2 0 100 -154 1.88496
299      141.675 1 2 0 100 -154 3.76991
300      141.675 1 2 0 100 -154 5.65487
301      141.675 1 2 0 100 -154 1.25664
302      141.675 1 2 0 100 -154 3.14159
303      141.675 1 2 0 100 -154 5.02655
304      141.675 1 2 0 100 -154 0.628319
305      141.675 1 2 0 100 -154 2.51327
306      141.675 1 2 0 100 -154 4.39823
307      141.675 1 2 0 100 -154 3.55271e-14
308      141.675 1 2 0 100 -154 7.10543e-14
309      141.675 1 2 0 100 -154 1.06581e-13
310      141.675 1 2 0 100 -123.2 0
311      141.675 1 2 0 100 -123.2 5.27788
312      141.675 1 2 0 100 -123.2 4.27257
313      141.675 1 2 0 100 -123.2 3.26726
314      141.675 1 2 0 100 -123.2 2.26195
315      141.675 1 2 0 100 -123.2 1.25664
316      141.675 1 2 0 100 -123.2 0.251327
317      141.675 1 2 0 100 -123.2 5.5292
318      141.675 1 2 0 100 -123.2 4.52389
319      141.675 1 2 0 100 -123.2 3.51858
320      141.675 1 2 0 100 -123.2 2.51327
321      141.675 1 2 0 100 -123.2 1.50796
322      141.675 1 2 0 100 -123.2 0.502655
323      141.675 1 2 0 100 -123.2 5.78053
324      141.675 1 2 0 100 -123.2 4.77522
325      141.675 1 2 0 100 -123.2 3.76991
326      141.675 1 2 0 100 -123.2 2.7646
327      141.675 1 2 0 100 -123.2 1.75929
328      141.675 1 2 0 100 -123.2 0.753982
329      141.675 1 2 0 100 -123.2 6.03186
330      141.675 1 2 0 100 -123.2 5.02655
331      141.675 1 2 0 100 -123.2 4.02124
332      141.675 1 2 0 100 -123.2 3.01593
333      141.675 1 2 0 100 -123.2 2.01062
334      141.675 1 2 0 100 -123.2 1.00531
335      141.675 1 2 0 100 -123.2 6.28319
336      141.675 1 2 0 100 -92.4 0
337      141.675 1 2 0 100 -92.4 2.38761
338      141.675 1 2 0 100 -92.4 4.77522
339      141.675 1 2 0 100 -92.4 0.879646
340      141.675 1 2 0 100 -92.4 3.26726
341      141.675 1 2 0 100 -92.4 5.65487
342      141.675 1 2 0 100 -92.4 1.75929
343      141.675 1 2 0 100 -92.4 4.1469
344      141.675 1 2 0 100 -92.4 0.251327
345      141.675 1 2 0 100 -92.4 2.63894
346      141.675 1 2 0 100 -92.4 5.02655
347      141.675 1 2 0 100 -92.4 1.13097
348      141.675 1 2 0 100 -92.4 3.51858
349      141.675 1 2 0 100 -92.4 5.90619
350      141.675 1 2 0 100 -92.4 2.01062
351      141.675 1 2 0 100 -92.4 4.39823
352      141.675 1 2 0 100 -92.4 0.502655
353      141.675 1 2 0 100 -92.4 2.89027
354      141.675 1 2 0 100 -92.4 5.27788
355      141.675 1 2 0 100 -92.4 1.3823
356      141.675 1 2 0 100 -92.4 3.76991
357      141.675 1 2 0 100 -92.4 6.15752
358      141.675 1 2 0 100 -92.4 2.26195
359      141.675 1 2 0 100 -92.4 4.64956
360      141.675 1 2 0 100 -92.4 0.753982
361      141.675 1 2 0 100 -92.4 3.14159
362      141.675 1 2 0 100 -92.4 5.5292
363      141.675 1 2 0 100 -92.4 1.63363
364      141.675 1 2 0 100 -92.4 4.02124
365      141.675 1 2 0 100 -92.4 0.125664
366      141.675 1 2 0 100 -92.4 2.51327
367      141.675 1 2 0 100 -92.4 4.90088
368      141.675 1 2 0 100 -92.4 1.00531
369      141.675 1 2 0 100 -92.4 3.39292
370      141.675 1 2 0 100 -92.4 5.78053
371      141.675 1 2 0 100 -92.4 1.88496
372      141.675 1 2 0 100 -61.6 0
373      141.675 1 2 0 100 -61.6 5.78053
374      141.675 1 2 0 100 -61.6 5.27788
375      141.675 1 2 0 100 -61.6 4.77522
376      141.675 1 2 0 100 -61.6 4.27257
377      141.675 1 2 0 100 -61.6 3.76991
378      141.675 1 2 0 100 -61.6 3.26726
379      141.675 1 2 0 100 -61.6 2.7646
380      141.675 1 2 0 100 -61.6 2.26195
381      141.675 1 2 0 100 -61.6 1.75929
382      141.675 1 2 0 100 -61.6 1.25664
383      141.675 1 2 0 100 -61.6 0.753982
384      141.675 1 2 0 100 -61.6 0.251327
385      141.675 1 2 0 100 -61.6 6.03186
386      141.675 1 2 0 100 -61.6 5.5292
387      141.675 1 2 0 100 -61.6 5.02655
388      141.675 1 2 0 100 -61.6 4.52389
389      141.675 1 2 0 100 -61.6 4.02124
390      141.675 1 2 0 100 -61.6 3.51858
391      141.675 1 2 0 100 -61.6 3.01593
392      141.675 1 2 0 100 -61.6 2.51327
393      141.675 1 2 0 100 -61.6 2.01062
394      141.675 1 2 0 100 -61.6 1.50796
395      141.675 1 2 0 100 -61.6 1.00531
396      141.675 1 2 0 100 -61.6 0.502655
397      141.675 1 2 0 100 -61.6 6.28319
398      141.675 1 2 0 100 -30.8 0
399      141.675 1 2 0 100 -30.8 2.89027
400      141.675 1 2 0 100 -30.8 5.78053
401      141.675 1 2 0 100 -30.8 2.38761
402      141.675 1 2 0 100 -30.8 5.27788
403      141.675 1 2 0 100 -30.8 1.88496
404      141.675 1 2 0 100 -30.8 4.77522
405      141.675 1 2 0 100 -30.8 1.3823
406      141.675 1 2 0 100 -30.8 4.27257
407      141.675 1 2 0 100 -30.8 0.879646
408      141.675 1 2 0 100 -30.8 3.76991
409      141.675 1 2 0 100 -30.8 0.376991
410      141.675 1 2 0 100 -30.8 3.26726
411      141.675 1 2 0 100 -30.8 6.15752
412      141.675 1 2 0 100 -30.8 2.7646
413      141.675 1 2 0 100 -30.8 5.65487
414      141.675 1 2 0 100 -30.8 2.26195
415      141.675 1 2 0 100 -30.8 5.15221
416      141.675 1 2 0 100 -30.8 1.75929
417      141.675 1 2 0 100 -30.8 4.64956
418      141.675 1 2 0 100 -30.8 1.25664
419      141.675 1 2 0 100 -30.8 4.1469
420      141.675 1 2 0 100 -30.8 0.753982
421      141.675 1 2 0 100 -30.8 3.64425
422      141.675 1 2 0 100 -30.8 0.251327
423      141.675 1 2 0 100 -30.8 3.14159
424      141.675 1 2 0 100 -30.8 6.03186
425      141.675 1 2 0 100 -30.8 2.63894
426      141.675 1 2 0 100 -30.8 5.5292
427      141.675 1 2 0 100 -30.8 2.13628
428      141.675 1 2 0 100 -30.8 5.02655
429      141.675 1 2 0 100 -30.8 1.63363
430      141.675 1 2 0 100 -30.8 4.52389
431      141.675 1 2 0 100 -30.8 1.13097
432      141.675 1 2 0 100 -30.8 4.02124
433      141.675 1 2 0 100 -30.8 0.628319
434      141.675 1 2 0 100 0 0
435      141.675 1 2 0 100 30.8 0
436      141.675 1 2 0 100 30.8 3.39292
437      141.675 1 2 0 100 30.8 0.502655
438      141.675 1 2 0 100 30.8 3.89557
439      141.675 1 2 0 100 30.8 1.00531
440      141.675 1 2 0 100 30.8 4.39823
441      141.675 1 2 0 100 30.8 1.50796
442      141.675 1 2 0 100 30.8 4.90088
443      141.675 1 2 0 100 30.8 2.01062
444      141.675 1 2 0 100 30.8 5.40354
445      141.675 1 2 0 100 30.8 2.51327
446      141.675 1 2 0 100 30.8 5.90619
447      141.675 1 2 0 100 30.8 3.01593
448      141.675 1 2 0 100 30.8 0.125664
449      141.675 1 2 0 100 30.8 3.51858
450      141.675 1 2 0 100 30.8 0.628319
451      141.675 1 2 0 100 30.8 4.02124
452      141.675 1 2 0 100 30.8 1.13097
453      141.675 1 2 0 100 30.8 4.52389
454      141.675 1 2 0 100 30.8 1.63363
455      141.675 1 2 0 100 30.8 5.02655
456      141.675 1 2 0 100 30.8 2.13628
457      141.675 1 2 0 100 30.8 5.5292
458      141.675 1 2 0 100 30.8 2.63894
459      141.675 1 2 0 100 30.8 6.03186
460      141.675 1 2 0 100 30.8 3.14159
461      141.675 1 2 0 100 30.8 0.251327
462      141.675 1 2 0 100 30.8 3.64425
463      141.675 1 2 0 100 30.8 0.753982
464      141.675 1 2 0 100 30.8 4.1469
465      141.675 1 2 0 100 30.8 1.25664
466      141.675 1 2 0 100 30.8 4.64956
467      141.675 1 2 0 100 30.8 1.75929
468      141.675 1 2 0 100 30.8 5.15221
469      141.675 1 2 0 100 30.8 2.26195
470      141.675 1 2 0 100 30.8 5.65487
471      141.675 1 2 0 100 61.6 0
472      141.675 1 2 0 100 61.6 0.502655
473      141.675 1 2 0 100 61.6 1.00531
474      141.675 1 2 0 100 61.6 1.50796
475      141.675 1 2 0 100 61.6 2.01062
476      141.675 1 2 0 100 61.6 2.51327
477      141.675 1 2 0 100 61.6 3.01593
478      141.675 1 2 0 100 61.6 3.51858
479      141.675 1 2 0 100 61.6 4.02124
480      141.675 1 2 0 100 61.6 4.52389
481      141.675 1 2 0 100 61.6 5.02655
482      141.675 1 2 0 100 61.6 5.5292
483      141.675 1 2 0 100 61.6 6.03186
484      141.675 1 2 0 100 61.6 0.251327
485      141.675 1 2 0 100 61.6 0.753982
486      141.675 1 2 0 100 61.6 1.25664
